Data from RamanShift Node
Date: Mon Dec 02 14:34:52 GMT 2013
User: Ion2
Spectrometer: V532-0003
Autoset integration time: false
Trigger mode: 0
Integration Time (sec): 2.000000E1
Scans to average: 1
Nonlinearity correction enabled: false
Boxcar width: 0
Stray light correction enabled: false
XAxis mode: Wavelengths
Storing dark spectrum: false
Number of Pixels in Spectrum: 1024
>>>>>Begin Spectral Data<<<<<
94.776E0	14.67E2
1.0084E2	13.57E2
1.0689E2	14.10E2
1.1294E2	14.31E2
1.1898E2	14.84E2
1.2503E2	13.91E2
1.3106E2	14.13E2
1.3709E2	14.68E2
1.4312E2	14.02E2
1.4914E2	14.82E2
1.5516E2	14.04E2
1.6117E2	14.17E2
1.6718E2	14.37E2
1.7318E2	13.58E2
1.7918E2	14.06E2
1.8517E2	14.78E2
1.9116E2	14.30E2
1.9714E2	13.87E2
2.0312E2	13.20E2
2.091E2	13.94E2
2.1507E2	13.79E2
2.2103E2	14.25E2
2.2699E2	13.47E2
2.3295E2	13.47E2
2.389E2	14.13E2
2.4485E2	14.09E2
2.5079E2	14.39E2
2.5673E2	13.28E2
2.6266E2	13.17E2
2.6859E2	14.42E2
2.7451E2	14.23E2
2.8043E2	14.86E2
2.8634E2	14.21E2
2.9225E2	14.99E2
2.9816E2	13.88E2
3.0406E2	13.50E2
3.0996E2	14.50E2
3.1585E2	13.53E2
3.2174E2	13.85E2
3.2762E2	12.93E2
3.335E2	14.14E2
3.3937E2	14.08E2
3.4524E2	14.18E2
3.511E2	14.14E2
3.5696E2	15.13E2
3.6282E2	16.82E2
3.6867E2	15.64E2
3.7451E2	17.08E2
3.8035E2	16.64E2
3.8619E2	18.21E2
3.9202E2	18.79E2
3.9785E2	17.52E2
4.0368E2	19.52E2
4.0949E2	20.45E2
4.1531E2	20.34E2
4.2112E2	20.43E2
4.2692E2	19.42E2
4.3273E2	18.80E2
4.3852E2	19.48E2
4.4431E2	18.55E2
4.501E2	19.19E2
4.5589E2	19.65E2
4.6166E2	20.21E2
4.6744E2	19.97E2
4.7321E2	20.13E2
4.7897E2	20.34E2
4.8473E2	19.86E2
4.9049E2	19.12E2
4.9624E2	20.47E2
5.0199E2	19.34E2
5.0773E2	19.63E2
5.1347E2	20.49E2
5.1921E2	18.85E2
5.2494E2	19.73E2
5.3066E2	19.08E2
5.3638E2	19.13E2
5.421E2	19.35E2
5.4781E2	18.82E2
5.5352E2	18.58E2
5.5922E2	19.10E2
5.6492E2	19.78E2
5.7062E2	18.95E2
5.7631E2	19.21E2
5.8199E2	18.89E2
5.8768E2	18.45E2
5.9335E2	18.46E2
5.9903E2	19.86E2
6.0469E2	18.03E2
6.1036E2	19.27E2
6.1602E2	20.10E2
6.2167E2	17.92E2
6.2733E2	18.64E2
6.3297E2	17.97E2
6.3862E2	18.20E2
6.4425E2	18.87E2
6.4989E2	18.34E2
6.5552E2	20.45E2
6.6114E2	18.78E2
6.6676E2	19.24E2
6.7238E2	19.50E2
6.7799E2	20.76E2
6.836E2	19.37E2
6.892E2	17.10E2
6.948E2	18.35E2
7.004E2	19.33E2
7.0599E2	17.73E2
7.1158E2	20.53E2
7.1716E2	18.45E2
7.2274E2	18.88E2
7.2831E2	19.67E2
7.3388E2	18.43E2
7.3945E2	19.18E2
7.4501E2	18.58E2
7.5057E2	18.13E2
7.5612E2	17.69E2
7.6167E2	18.55E2
7.6721E2	17.94E2
7.7275E2	18.70E2
7.7829E2	16.97E2
7.8382E2	20.02E2
7.8935E2	18.75E2
7.9487E2	19.03E2
8.0039E2	17.54E2
8.059E2	19.21E2
8.1141E2	17.33E2
8.1692E2	19.06E2
8.2242E2	19.58E2
8.2792E2	18.09E2
8.3341E2	17.54E2
8.389E2	21.08E2
8.4439E2	18.09E2
8.4987E2	17.98E2
8.5535E2	20.01E2
8.6082E2	17.62E2
8.6629E2	17.88E2
8.7176E2	17.85E2
8.7722E2	18.61E2
8.8267E2	18.36E2
8.8813E2	16.70E2
8.9357E2	17.66E2
8.9902E2	18.30E2
9.0446E2	17.62E2
9.0989E2	17.84E2
9.1533E2	17.12E2
9.2075E2	18.02E2
9.2618E2	19.29E2
9.316E2	18.49E2
9.3701E2	18.39E2
9.4242E2	16.99E2
9.4783E2	18.56E2
9.5323E2	18.11E2
9.5863E2	16.15E2
9.6403E2	16.95E2
9.6942E2	17.76E2
9.748E2	17.86E2
9.8019E2	18.46E2
9.8556E2	16.42E2
9.9094E2	17.48E2
9.9631E2	19.50E2
10.017E2	17.37E2
10.07E2	17.32E2
10.124E2	16.93E2
10.178E2	16.87E2
10.231E2	18.15E2
10.284E2	17.29E2
10.338E2	18.68E2
10.391E2	17.92E2
10.445E2	19.14E2
10.498E2	18.91E2
10.551E2	17.39E2
10.604E2	18.53E2
10.658E2	17.90E2
10.711E2	19.75E2
10.764E2	18.32E2
10.817E2	17.94E2
10.87E2	19.31E2
10.923E2	18.36E2
10.976E2	18.38E2
11.029E2	17.33E2
11.082E2	18.89E2
11.134E2	19.05E2
11.187E2	17.39E2
11.24E2	18.15E2
11.293E2	19.08E2
11.345E2	17.37E2
11.398E2	19.24E2
11.451E2	18.66E2
11.503E2	18.43E2
11.556E2	18.76E2
11.608E2	18.49E2
11.66E2	18.93E2
11.713E2	18.24E2
11.765E2	19.23E2
11.818E2	19.17E2
11.87E2	18.30E2
11.922E2	17.92E2
11.974E2	18.64E2
12.026E2	19.10E2
12.078E2	18.47E2
12.131E2	19.69E2
12.183E2	18.49E2
12.235E2	18.77E2
12.287E2	17.69E2
12.338E2	20.02E2
12.39E2	18.97E2
12.442E2	19.20E2
12.494E2	20.93E2
12.546E2	19.57E2
12.597E2	19.48E2
12.649E2	20.96E2
12.701E2	19.44E2
12.752E2	19.20E2
12.804E2	21.16E2
12.856E2	20.83E2
12.907E2	20.02E2
12.958E2	22.13E2
13.01E2	23.88E2
13.061E2	21.10E2
13.113E2	22.56E2
13.164E2	23.23E2
13.215E2	23.64E2
13.266E2	27.28E2
13.318E2	28.13E2
13.369E2	27.66E2
13.42E2	33.21E2
13.471E2	32.45E2
13.522E2	32.39E2
13.573E2	31.94E2
13.624E2	32.51E2
13.675E2	28.84E2
13.726E2	29.03E2
13.777E2	25.95E2
13.827E2	26.12E2
13.878E2	23.83E2
13.929E2	21.53E2
13.98E2	21.86E2
14.03E2	20.09E2
14.081E2	23.53E2
14.131E2	19.73E2
14.182E2	20.43E2
14.232E2	21.63E2
14.283E2	21.76E2
14.333E2	20.18E2
14.384E2	21.25E2
14.434E2	21.59E2
14.484E2	20.20E2
14.535E2	20.68E2
14.585E2	21.93E2
14.635E2	19.76E2
14.685E2	22.46E2
14.735E2	21.70E2
14.786E2	21.36E2
14.836E2	21.44E2
14.886E2	21.21E2
14.936E2	22.98E2
14.986E2	21.44E2
15.036E2	21.70E2
15.085E2	22.77E2
15.135E2	22.64E2
15.185E2	24.76E2
15.235E2	23.02E2
15.285E2	23.99E2
15.334E2	25.75E2
15.384E2	28.67E2
15.433E2	31.24E2
15.483E2	33.08E2
15.533E2	37.99E2
15.582E2	46.47E2
15.632E2	56.52E2
15.681E2	72.04E2
15.73E2	89.83E2
15.78E2	1.0815E4
15.829E2	1.1866E4
15.878E2	1.1941E4
15.928E2	1.1007E4
15.977E2	93.71E2
16.026E2	74.44E2
16.075E2	60.15E2
16.124E2	47.18E2
16.173E2	38.73E2
16.222E2	33.35E2
16.271E2	31.12E2
16.32E2	30.06E2
16.369E2	27.37E2
16.418E2	25.93E2
16.467E2	24.25E2
16.516E2	23.64E2
16.565E2	23.02E2
16.613E2	21.84E2
16.662E2	22.75E2
16.711E2	21.54E2
16.759E2	20.79E2
16.808E2	20.31E2
16.857E2	20.96E2
16.905E2	19.88E2
16.954E2	21.15E2
17.002E2	20.47E2
17.051E2	20.56E2
17.099E2	20.90E2
17.147E2	18.83E2
17.196E2	20.46E2
17.244E2	21.74E2
17.292E2	19.86E2
17.34E2	19.62E2
17.389E2	19.87E2
17.437E2	21.97E2
17.485E2	20.15E2
17.533E2	19.90E2
17.581E2	18.30E2
17.629E2	20.17E2
17.677E2	18.60E2
17.725E2	19.91E2
17.773E2	19.63E2
17.821E2	19.02E2
17.868E2	19.61E2
17.916E2	19.12E2
17.964E2	18.57E2
18.012E2	18.75E2
18.059E2	18.03E2
18.107E2	20.10E2
18.155E2	19.41E2
18.202E2	18.07E2
18.25E2	18.76E2
18.297E2	18.40E2
18.345E2	19.04E2
18.392E2	19.84E2
18.44E2	19.23E2
18.487E2	19.50E2
18.534E2	19.57E2
18.582E2	19.57E2
18.629E2	19.10E2
18.676E2	18.22E2
18.723E2	18.76E2
18.77E2	19.25E2
18.818E2	20.55E2
18.865E2	18.07E2
18.912E2	18.85E2
18.959E2	19.00E2
19.006E2	19.50E2
19.053E2	20.77E2
19.10E2	19.82E2
19.147E2	20.10E2
19.193E2	20.07E2
19.24E2	19.71E2
19.287E2	17.58E2
19.334E2	19.27E2
19.381E2	20.45E2
19.427E2	19.37E2
19.474E2	19.77E2
19.52E2	20.70E2
19.567E2	20.33E2
19.614E2	20.17E2
19.66E2	19.99E2
19.707E2	19.72E2
19.753E2	19.12E2
19.80E2	20.54E2
19.846E2	20.34E2
19.892E2	19.84E2
19.939E2	19.88E2
19.985E2	20.66E2
20.031E2	20.57E2
20.077E2	20.53E2
20.123E2	21.45E2
20.17E2	20.76E2
20.216E2	19.82E2
20.262E2	22.35E2
20.308E2	19.98E2
20.354E2	20.24E2
20.40E2	21.61E2
20.446E2	21.48E2
20.492E2	21.80E2
20.538E2	20.17E2
20.583E2	19.67E2
20.629E2	21.27E2
20.675E2	21.52E2
20.721E2	19.37E2
20.767E2	20.47E2
20.812E2	19.99E2
20.858E2	19.55E2
20.903E2	21.08E2
20.949E2	21.40E2
20.995E2	20.24E2
21.04E2	19.41E2
21.086E2	19.76E2
21.131E2	20.45E2
21.177E2	21.25E2
21.222E2	20.26E2
21.267E2	20.85E2
21.313E2	20.47E2
21.358E2	19.84E2
21.403E2	19.35E2
21.448E2	19.17E2
21.494E2	20.11E2
21.539E2	19.67E2
21.584E2	21.10E2
21.629E2	19.79E2
21.674E2	20.89E2
21.719E2	20.76E2
21.764E2	21.29E2
21.809E2	20.66E2
21.854E2	20.01E2
21.899E2	19.82E2
21.944E2	20.84E2
21.988E2	21.27E2
22.033E2	20.18E2
22.078E2	20.59E2
22.123E2	20.35E2
22.168E2	20.38E2
22.212E2	21.84E2
22.257E2	21.15E2
22.301E2	20.24E2
22.346E2	19.82E2
22.391E2	19.56E2
22.435E2	20.26E2
22.48E2	20.28E2
22.524E2	20.09E2
22.568E2	20.31E2
22.613E2	19.60E2
22.657E2	22.01E2
22.701E2	20.87E2
22.746E2	21.77E2
22.79E2	21.10E2
22.834E2	20.53E2
22.878E2	18.96E2
22.923E2	20.30E2
22.967E2	20.89E2
23.011E2	21.16E2
23.055E2	21.16E2
23.099E2	19.08E2
23.143E2	21.06E2
23.187E2	20.62E2
23.231E2	20.80E2
23.275E2	20.89E2
23.319E2	20.40E2
23.362E2	21.65E2
23.406E2	20.28E2
23.45E2	21.29E2
23.494E2	20.95E2
23.538E2	21.31E2
23.581E2	20.61E2
23.625E2	20.73E2
23.669E2	21.34E2
23.712E2	21.80E2
23.756E2	21.84E2
23.799E2	21.92E2
23.843E2	21.21E2
23.886E2	21.95E2
23.93E2	22.01E2
23.973E2	20.67E2
24.016E2	21.71E2
24.06E2	22.01E2
24.103E2	21.48E2
24.146E2	21.26E2
24.19E2	21.52E2
24.233E2	24.10E2
24.276E2	22.39E2
24.319E2	24.12E2
24.362E2	23.94E2
24.405E2	25.40E2
24.448E2	25.92E2
24.492E2	26.37E2
24.535E2	26.44E2
24.578E2	27.05E2
24.62E2	26.56E2
24.663E2	25.83E2
24.706E2	25.93E2
24.749E2	25.87E2
24.792E2	25.34E2
24.835E2	25.42E2
24.877E2	23.67E2
24.92E2	24.59E2
24.963E2	23.03E2
25.006E2	23.69E2
25.048E2	23.76E2
25.091E2	25.19E2
25.133E2	23.88E2
25.176E2	24.47E2
25.218E2	24.02E2
25.261E2	25.47E2
25.303E2	24.63E2
25.346E2	23.48E2
25.388E2	23.93E2
25.431E2	24.75E2
25.473E2	24.08E2
25.515E2	22.88E2
25.558E2	24.64E2
25.60E2	22.66E2
25.642E2	22.91E2
25.684E2	25.59E2
25.726E2	23.47E2
25.769E2	24.56E2
25.811E2	23.97E2
25.853E2	25.20E2
25.895E2	24.52E2
25.937E2	24.71E2
25.979E2	27.34E2
26.021E2	26.31E2
26.063E2	26.94E2
26.104E2	28.40E2
26.146E2	27.52E2
26.188E2	27.64E2
26.23E2	32.17E2
26.272E2	31.14E2
26.313E2	32.38E2
26.355E2	33.22E2
26.397E2	36.07E2
26.439E2	37.59E2
26.48E2	42.95E2
26.522E2	43.91E2
26.563E2	49.16E2
26.605E2	53.35E2
26.646E2	57.73E2
26.688E2	64.11E2
26.729E2	70.76E2
26.771E2	79.27E2
26.812E2	87.56E2
26.853E2	99.24E2
26.895E2	1.0459E4
26.936E2	1.1169E4
26.977E2	1.1633E4
27.019E2	1.1787E4
27.06E2	1.1667E4
27.101E2	1.110E4
27.142E2	1.0469E4
27.183E2	99.41E2
27.224E2	91.12E2
27.265E2	82.18E2
27.306E2	74.02E2
27.347E2	68.20E2
27.388E2	60.82E2
27.429E2	56.07E2
27.47E2	49.73E2
27.511E2	46.40E2
27.552E2	41.42E2
27.593E2	38.60E2
27.634E2	37.66E2
27.674E2	34.40E2
27.715E2	34.43E2
27.756E2	32.66E2
27.797E2	30.60E2
27.837E2	29.83E2
27.878E2	29.55E2
27.919E2	28.42E2
27.959E2	28.28E2
28.00E2	27.02E2
28.04E2	26.67E2
28.081E2	26.92E2
28.121E2	26.08E2
28.162E2	26.90E2
28.202E2	26.88E2
28.242E2	26.33E2
28.283E2	27.00E2
28.323E2	25.78E2
28.363E2	25.32E2
28.404E2	25.79E2
28.444E2	25.40E2
28.484E2	25.34E2
28.524E2	25.13E2
28.564E2	25.87E2
28.604E2	25.85E2
28.645E2	26.95E2
28.685E2	25.07E2
28.725E2	26.08E2
28.765E2	23.72E2
28.805E2	24.90E2
28.845E2	25.09E2
28.885E2	25.64E2
28.924E2	25.26E2
28.964E2	25.30E2
29.004E2	26.04E2
29.044E2	27.39E2
29.084E2	25.84E2
29.123E2	25.68E2
29.163E2	26.95E2
29.203E2	25.76E2
29.243E2	26.98E2
29.282E2	25.47E2
29.322E2	27.01E2
29.361E2	25.72E2
29.401E2	25.93E2
29.441E2	24.96E2
29.48E2	26.31E2
29.52E2	25.67E2
29.559E2	25.26E2
29.598E2	27.02E2
29.638E2	26.75E2
29.677E2	26.71E2
29.717E2	26.84E2
29.756E2	25.85E2
29.795E2	25.21E2
29.834E2	25.64E2
29.874E2	26.01E2
29.913E2	25.78E2
29.952E2	25.57E2
29.991E2	25.49E2
30.03E2	26.17E2
30.069E2	25.49E2
30.108E2	27.20E2
30.147E2	26.50E2
30.186E2	26.75E2
30.225E2	25.34E2
30.264E2	26.34E2
30.303E2	25.83E2
30.342E2	24.94E2
30.381E2	24.49E2
30.42E2	26.22E2
30.459E2	27.26E2
30.498E2	26.00E2
30.536E2	27.00E2
30.575E2	26.42E2
30.614E2	25.15E2
30.652E2	25.60E2
30.691E2	26.31E2
30.73E2	25.47E2
30.768E2	27.01E2
30.807E2	24.31E2
30.845E2	27.24E2
30.884E2	26.53E2
30.922E2	25.81E2
30.961E2	27.03E2
30.999E2	26.54E2
31.038E2	26.96E2
31.076E2	27.62E2
31.115E2	28.21E2
31.153E2	28.27E2
31.191E2	27.93E2
31.229E2	27.49E2
31.268E2	27.51E2
31.306E2	26.98E2
31.344E2	27.55E2
31.382E2	27.36E2
31.421E2	28.34E2
31.459E2	28.46E2
31.497E2	30.25E2
31.535E2	30.68E2
31.573E2	30.80E2
31.611E2	31.13E2
31.649E2	30.93E2
31.687E2	31.84E2
31.725E2	33.29E2
31.763E2	33.48E2
31.801E2	34.53E2
31.838E2	34.47E2
31.876E2	36.23E2
31.914E2	35.04E2
31.952E2	34.58E2
31.99E2	37.02E2
32.027E2	37.89E2
32.065E2	40.18E2
32.103E2	37.82E2
32.14E2	40.98E2
32.178E2	41.15E2
32.216E2	42.59E2
32.253E2	43.80E2
32.291E2	43.98E2
32.328E2	44.80E2
32.366E2	48.47E2
32.403E2	48.15E2
32.441E2	49.14E2
32.478E2	49.46E2
32.515E2	48.68E2
32.553E2	49.10E2
32.59E2	50.80E2
32.627E2	47.76E2
32.665E2	46.64E2
32.702E2	47.60E2
32.739E2	47.31E2
32.776E2	47.92E2
32.813E2	47.20E2
32.851E2	46.85E2
32.888E2	46.94E2
32.925E2	48.89E2
32.962E2	49.33E2
32.999E2	48.40E2
33.036E2	48.39E2
33.073E2	51.49E2
33.11E2	50.18E2
33.147E2	52.47E2
33.184E2	51.99E2
33.221E2	50.85E2
33.258E2	52.39E2
33.294E2	52.55E2
33.331E2	53.68E2
33.368E2	53.46E2
33.405E2	55.13E2
33.442E2	54.35E2
33.478E2	55.03E2
33.515E2	55.45E2
33.552E2	55.66E2
33.588E2	57.70E2
33.625E2	57.59E2
33.661E2	58.10E2
33.698E2	57.32E2
33.735E2	60.15E2
33.771E2	59.45E2
33.808E2	61.35E2
33.844E2	60.97E2
33.88E2	62.85E2
33.917E2	63.22E2
33.953E2	64.19E2
33.99E2	63.06E2
34.026E2	64.42E2
34.062E2	65.38E2
34.099E2	65.52E2
34.135E2	65.36E2
34.171E2	65.23E2
34.207E2	68.35E2
34.243E2	66.19E2
34.28E2	65.56E2
34.316E2	66.33E2
34.352E2	66.22E2
34.388E2	67.21E2
34.424E2	68.60E2
34.46E2	67.23E2
34.496E2	66.33E2
34.532E2	67.70E2
34.568E2	65.94E2
34.604E2	68.29E2
34.64E2	67.21E2
34.676E2	65.42E2
34.712E2	67.42E2
34.747E2	67.78E2
34.783E2	67.10E2
34.819E2	66.26E2
34.855E2	66.39E2
34.891E2	66.58E2
34.926E2	65.56E2
34.962E2	64.68E2
34.998E2	65.14E2
35.033E2	65.82E2
35.069E2	63.62E2
35.105E2	62.78E2
35.14E2	63.54E2
35.176E2	63.56E2
35.211E2	63.35E2
35.247E2	62.11E2
35.282E2	62.36E2
35.318E2	59.79E2
35.353E2	58.93E2
35.388E2	59.43E2
35.424E2	56.88E2
35.459E2	58.53E2
35.494E2	60.00E2
35.53E2	55.91E2
35.565E2	55.60E2
35.60E2	55.24E2
35.635E2	54.18E2
35.671E2	52.60E2
35.706E2	52.68E2
35.741E2	52.60E2
35.776E2	52.49E2
35.811E2	50.39E2
35.846E2	50.29E2
35.881E2	50.45E2
35.916E2	51.06E2
35.951E2	48.24E2
35.986E2	46.99E2
36.021E2	46.03E2
36.056E2	47.22E2
36.091E2	45.76E2
36.126E2	44.02E2
36.161E2	44.33E2
36.196E2	42.78E2
36.231E2	42.36E2
36.265E2	40.90E2
36.30E2	41.85E2
36.335E2	40.53E2
36.37E2	39.77E2
36.404E2	38.90E2
36.439E2	38.94E2
36.474E2	35.59E2
36.508E2	36.72E2
36.543E2	35.61E2
36.577E2	33.65E2
36.612E2	36.53E2
36.647E2	31.08E2
36.681E2	31.58E2
36.715E2	30.31E2
36.75E2	30.21E2
36.784E2	31.16E2
36.819E2	30.13E2
36.853E2	27.66E2
36.888E2	28.69E2
36.922E2	26.22E2
36.956E2	27.47E2
36.99E2	28.04E2
37.025E2	26.12E2
37.059E2	26.05E2
37.093E2	27.16E2
37.127E2	24.81E2
37.162E2	25.03E2
37.196E2	24.41E2
37.23E2	23.59E2
37.264E2	24.12E2
37.298E2	22.29E2
37.332E2	23.65E2
37.366E2	23.73E2
37.40E2	23.80E2
37.434E2	22.12E2
37.468E2	22.01E2
37.502E2	23.06E2
37.536E2	23.75E2
37.57E2	23.07E2
37.604E2	23.02E2
37.638E2	22.52E2
37.671E2	22.73E2
37.705E2	24.56E2
37.739E2	21.61E2
37.773E2	23.78E2
37.806E2	21.46E2
37.84E2	21.63E2
37.874E2	23.13E2
37.908E2	21.02E2
37.941E2	21.94E2
37.975E2	21.74E2
38.008E2	22.41E2
38.042E2	21.46E2
38.076E2	21.74E2
38.109E2	21.13E2
38.143E2	19.75E2
38.176E2	20.03E2
38.209E2	23.09E2
38.243E2	19.96E2
38.276E2	22.24E2
38.31E2	21.56E2
38.343E2	20.79E2
38.376E2	22.58E2
38.41E2	20.92E2
38.443E2	21.63E2
38.476E2	22.41E2
38.51E2	20.53E2
38.543E2	20.16E2
38.576E2	20.68E2
38.609E2	21.78E2
38.642E2	20.60E2
38.675E2	21.43E2
38.709E2	23.19E2
38.742E2	21.53E2
38.775E2	19.96E2
38.808E2	21.25E2
38.841E2	22.00E2
38.874E2	20.99E2
38.907E2	20.59E2
38.94E2	21.92E2
38.973E2	21.42E2
39.006E2	22.51E2
39.038E2	20.54E2
39.071E2	21.74E2
39.104E2	20.11E2
39.137E2	21.80E2
39.17E2	20.62E2
39.203E2	21.76E2
39.235E2	20.78E2
39.268E2	20.92E2
39.301E2	20.79E2
39.333E2	21.01E2
39.366E2	21.51E2
39.399E2	21.18E2
39.431E2	22.64E2
39.464E2	21.81E2
39.497E2	20.55E2
39.529E2	22.62E2
39.562E2	21.34E2
39.594E2	20.64E2
39.627E2	20.77E2
39.659E2	22.56E2
39.692E2	21.02E2
39.724E2	21.35E2
39.756E2	23.32E2
39.789E2	21.19E2
39.821E2	22.37E2
39.853E2	21.55E2
39.886E2	22.27E2
39.918E2	21.19E2
39.95E2	21.38E2
39.983E2	22.05E2
40.015E2	21.04E2
40.047E2	22.37E2
40.079E2	21.42E2
40.111E2	20.79E2
40.143E2	20.89E2
40.176E2	21.61E2
40.208E2	22.09E2
40.24E2	22.91E2
40.272E2	22.37E2
40.304E2	23.09E2
40.336E2	22.07E2
40.368E2	21.72E2
40.40E2	21.71E2
40.432E2	21.77E2
40.464E2	21.02E2
40.495E2	21.59E2
40.527E2	21.27E2
40.559E2	20.98E2
40.591E2	21.12E2
40.623E2	21.69E2
40.655E2	21.23E2
40.686E2	21.72E2
40.718E2	22.13E2
40.75E2	21.78E2
40.782E2	21.12E2
40.813E2	21.90E2
40.845E2	20.60E2
40.876E2	20.17E2
40.908E2	21.72E2
40.94E2	21.51E2
40.971E2	21.50E2
41.003E2	22.06E2
41.034E2	19.65E2
41.066E2	21.26E2
41.097E2	21.23E2
41.129E2	21.37E2
41.16E2	21.90E2
41.192E2	22.33E2
41.223E2	20.74E2
41.254E2	21.23E2
41.286E2	21.52E2
41.317E2	20.41E2
41.348E2	22.27E2
41.38E2	22.28E2
41.411E2	22.01E2
41.442E2	21.57E2
41.473E2	21.90E2
41.505E2	22.54E2
41.536E2	22.03E2
41.567E2	21.63E2
41.598E2	21.02E2
41.629E2	21.99E2
41.66E2	21.42E2
41.691E2	21.65E2
41.723E2	21.75E2
41.754E2	21.73E2
41.785E2	21.65E2
41.816E2	23.23E2
41.847E2	21.57E2
41.877E2	21.69E2
41.908E2	23.76E2
41.939E2	22.60E2
41.97E2	22.83E2
42.001E2	23.29E2
42.032E2	23.30E2
42.063E2	23.53E2
42.094E2	22.54E2
42.124E2	21.87E2
42.155E2	22.81E2
42.186E2	23.15E2
42.217E2	23.59E2
42.247E2	23.76E2
42.278E2	23.45E2
42.309E2	22.62E2
42.339E2	23.29E2
42.37E2	25.98E2
42.40E2	23.59E2
42.431E2	24.43E2
42.462E2	24.30E2
42.492E2	25.44E2
42.523E2	26.00E2
42.553E2	26.16E2
42.584E2	27.94E2
42.614E2	26.25E2
42.644E2	25.55E2
42.675E2	27.96E2
42.705E2	27.57E2
42.736E2	26.69E2
42.766E2	27.35E2
42.796E2	27.22E2
42.827E2	27.23E2
42.857E2	29.11E2
42.887E2	28.77E2
42.917E2	27.93E2
42.948E2	27.21E2
42.978E2	27.32E2
43.008E2	26.87E2
43.038E2	26.55E2
43.068E2	25.72E2
43.098E2	26.92E2
43.129E2	26.02E2
43.159E2	25.32E2
43.189E2	25.04E2
43.219E2	24.62E2
43.249E2	25.07E2
43.279E2	23.76E2
43.309E2	24.98E2
43.339E2	24.20E2
43.369E2	22.45E2
43.399E2	23.55E2
43.428E2	21.74E2
43.458E2	21.78E2
43.488E2	22.26E2
43.518E2	21.92E2
43.548E2	20.86E2
43.578E2	20.94E2
43.607E2	23.04E2
43.637E2	22.35E2
43.667E2	23.00E2
43.697E2	21.40E2
43.726E2	22.29E2
43.756E2	20.28E2
43.786E2	21.78E2
43.815E2	20.11E2
43.845E2	21.92E2
43.874E2	20.19E2
43.904E2	19.91E2
43.934E2	20.57E2
43.963E2	21.33E2
43.993E2	22.33E2
44.022E2	20.14E2
44.052E2	21.54E2
44.081E2	21.49E2
44.111E2	21.38E2
44.14E2	21.50E2
44.169E2	22.01E2
44.199E2	19.73E2
44.228E2	20.98E2
44.257E2	20.60E2
44.287E2	20.49E2
44.316E2	20.20E2
44.345E2	20.43E2
44.375E2	20.91E2
44.404E2	21.42E2
44.433E2	20.46E2
44.462E2	19.95E2
44.491E2	19.58E2
44.52E2	20.87E2
