Data from RamanShift Node
Date: Thu Jan 23 12:06:25 GMT 2014
User: Ion2
Spectrometer: V532-0003
Autoset integration time: false
Trigger mode: 0
Integration Time (sec): 3.000000E1
Scans to average: 1
Nonlinearity correction enabled: false
Boxcar width: 0
Stray light correction enabled: false
XAxis mode: Wavelengths
Storing dark spectrum: false
Number of Pixels in Spectrum: 1024
>>>>>Begin Spectral Data<<<<<
94.776E0	14.19E2
1.0084E2	14.12E2
1.0689E2	14.99E2
1.1294E2	15.13E2
1.1898E2	15.58E2
1.2503E2	14.99E2
1.3106E2	14.32E2
1.3709E2	13.74E2
1.4312E2	15.18E2
1.4914E2	14.10E2
1.5516E2	14.08E2
1.6117E2	13.73E2
1.6718E2	14.50E2
1.7318E2	15.22E2
1.7918E2	16.04E2
1.8517E2	13.88E2
1.9116E2	14.61E2
1.9714E2	13.55E2
2.0312E2	14.29E2
2.091E2	15.55E2
2.1507E2	14.55E2
2.2103E2	14.14E2
2.2699E2	14.04E2
2.3295E2	13.62E2
2.389E2	13.71E2
2.4485E2	14.14E2
2.5079E2	15.41E2
2.5673E2	14.53E2
2.6266E2	15.30E2
2.6859E2	12.91E2
2.7451E2	14.27E2
2.8043E2	14.19E2
2.8634E2	13.00E2
2.9225E2	14.65E2
2.9816E2	15.18E2
3.0406E2	13.45E2
3.0996E2	14.67E2
3.1585E2	15.42E2
3.2174E2	14.59E2
3.2762E2	13.85E2
3.335E2	14.50E2
3.3937E2	14.72E2
3.4524E2	15.53E2
3.511E2	15.24E2
3.5696E2	15.77E2
3.6282E2	17.98E2
3.6867E2	16.53E2
3.7451E2	18.07E2
3.8035E2	20.12E2
3.8619E2	21.14E2
3.9202E2	21.29E2
3.9785E2	21.97E2
4.0368E2	23.42E2
4.0949E2	22.98E2
4.1531E2	23.86E2
4.2112E2	24.79E2
4.2692E2	24.22E2
4.3273E2	22.47E2
4.3852E2	22.31E2
4.4431E2	23.64E2
4.501E2	22.57E2
4.5589E2	24.79E2
4.6166E2	23.26E2
4.6744E2	22.96E2
4.7321E2	24.50E2
4.7897E2	24.35E2
4.8473E2	23.09E2
4.9049E2	23.61E2
4.9624E2	24.43E2
5.0199E2	25.11E2
5.0773E2	22.44E2
5.1347E2	21.08E2
5.1921E2	21.89E2
5.2494E2	22.28E2
5.3066E2	21.86E2
5.3638E2	21.56E2
5.421E2	21.70E2
5.4781E2	21.73E2
5.5352E2	22.06E2
5.5922E2	21.15E2
5.6492E2	21.35E2
5.7062E2	21.40E2
5.7631E2	19.87E2
5.8199E2	18.66E2
5.8768E2	20.83E2
5.9335E2	19.62E2
5.9903E2	20.95E2
6.0469E2	21.37E2
6.1036E2	19.99E2
6.1602E2	20.49E2
6.2167E2	20.22E2
6.2733E2	19.35E2
6.3297E2	19.95E2
6.3862E2	20.66E2
6.4425E2	19.79E2
6.4989E2	18.75E2
6.5552E2	20.24E2
6.6114E2	21.27E2
6.6676E2	18.26E2
6.7238E2	20.77E2
6.7799E2	21.80E2
6.836E2	20.75E2
6.892E2	19.90E2
6.948E2	19.16E2
7.004E2	21.74E2
7.0599E2	20.94E2
7.1158E2	20.47E2
7.1716E2	19.38E2
7.2274E2	20.35E2
7.2831E2	19.06E2
7.3388E2	19.11E2
7.3945E2	20.37E2
7.4501E2	20.07E2
7.5057E2	21.04E2
7.5612E2	21.40E2
7.6167E2	19.84E2
7.6721E2	20.45E2
7.7275E2	20.36E2
7.7829E2	19.42E2
7.8382E2	21.80E2
7.8935E2	19.78E2
7.9487E2	20.07E2
8.0039E2	20.71E2
8.059E2	20.68E2
8.1141E2	20.96E2
8.1692E2	21.02E2
8.2242E2	19.69E2
8.2792E2	18.17E2
8.3341E2	21.84E2
8.389E2	21.90E2
8.4439E2	20.14E2
8.4987E2	20.39E2
8.5535E2	21.93E2
8.6082E2	21.40E2
8.6629E2	20.24E2
8.7176E2	20.09E2
8.7722E2	21.29E2
8.8267E2	21.95E2
8.8813E2	22.81E2
8.9357E2	23.13E2
8.9902E2	21.66E2
9.0446E2	22.88E2
9.0989E2	23.09E2
9.1533E2	22.33E2
9.2075E2	22.49E2
9.2618E2	24.25E2
9.316E2	22.65E2
9.3701E2	22.94E2
9.4242E2	21.46E2
9.4783E2	22.54E2
9.5323E2	20.81E2
9.5863E2	20.07E2
9.6403E2	19.86E2
9.6942E2	22.77E2
9.748E2	21.88E2
9.8019E2	21.44E2
9.8556E2	20.15E2
9.9094E2	20.94E2
9.9631E2	20.56E2
10.017E2	19.44E2
10.07E2	20.03E2
10.124E2	19.76E2
10.178E2	19.58E2
10.231E2	20.34E2
10.284E2	18.15E2
10.338E2	20.45E2
10.391E2	19.40E2
10.445E2	19.63E2
10.498E2	20.24E2
10.551E2	20.98E2
10.604E2	20.85E2
10.658E2	19.64E2
10.711E2	20.60E2
10.764E2	21.21E2
10.817E2	19.03E2
10.87E2	18.27E2
10.923E2	21.58E2
10.976E2	19.27E2
11.029E2	19.18E2
11.082E2	19.51E2
11.134E2	20.05E2
11.187E2	18.59E2
11.24E2	21.25E2
11.293E2	20.37E2
11.345E2	19.45E2
11.398E2	18.94E2
11.451E2	21.50E2
11.503E2	20.66E2
11.556E2	19.46E2
11.608E2	19.19E2
11.66E2	20.52E2
11.713E2	18.75E2
11.765E2	22.11E2
11.818E2	19.65E2
11.87E2	20.19E2
11.922E2	20.47E2
11.974E2	20.53E2
12.026E2	19.67E2
12.078E2	18.86E2
12.131E2	18.15E2
12.183E2	18.72E2
12.235E2	18.87E2
12.287E2	18.66E2
12.338E2	18.76E2
12.39E2	20.57E2
12.442E2	19.71E2
12.494E2	21.28E2
12.546E2	19.86E2
12.597E2	18.55E2
12.649E2	20.30E2
12.701E2	18.74E2
12.752E2	18.02E2
12.804E2	18.15E2
12.856E2	19.98E2
12.907E2	17.98E2
12.958E2	20.36E2
13.01E2	20.55E2
13.061E2	20.01E2
13.113E2	20.22E2
13.164E2	18.44E2
13.215E2	18.20E2
13.266E2	19.10E2
13.318E2	19.65E2
13.369E2	20.49E2
13.42E2	19.98E2
13.471E2	19.35E2
13.522E2	18.53E2
13.573E2	19.12E2
13.624E2	19.20E2
13.675E2	19.57E2
13.726E2	19.01E2
13.777E2	18.93E2
13.827E2	19.67E2
13.878E2	19.74E2
13.929E2	19.38E2
13.98E2	18.99E2
14.03E2	19.90E2
14.081E2	18.00E2
14.131E2	19.29E2
14.182E2	20.56E2
14.232E2	19.51E2
14.283E2	19.78E2
14.333E2	20.74E2
14.384E2	18.68E2
14.434E2	18.95E2
14.484E2	17.84E2
14.535E2	18.40E2
14.585E2	20.05E2
14.635E2	17.83E2
14.685E2	21.31E2
14.735E2	18.53E2
14.786E2	19.04E2
14.836E2	16.74E2
14.886E2	18.62E2
14.936E2	18.83E2
14.986E2	18.57E2
15.036E2	19.18E2
15.085E2	19.04E2
15.135E2	16.19E2
15.185E2	17.22E2
15.235E2	18.72E2
15.285E2	17.73E2
15.334E2	17.52E2
15.384E2	19.67E2
15.433E2	20.83E2
15.483E2	19.77E2
15.533E2	18.97E2
15.582E2	19.06E2
15.632E2	20.41E2
15.681E2	18.93E2
15.73E2	19.82E2
15.78E2	20.39E2
15.829E2	19.18E2
15.878E2	20.03E2
15.928E2	19.39E2
15.977E2	20.26E2
16.026E2	20.97E2
16.075E2	19.85E2
16.124E2	19.03E2
16.173E2	19.04E2
16.222E2	19.82E2
16.271E2	18.95E2
16.32E2	20.60E2
16.369E2	20.09E2
16.418E2	18.87E2
16.467E2	18.60E2
16.516E2	19.31E2
16.565E2	17.92E2
16.613E2	18.80E2
16.662E2	19.82E2
16.711E2	18.70E2
16.759E2	17.99E2
16.808E2	19.44E2
16.857E2	19.58E2
16.905E2	18.56E2
16.954E2	18.65E2
17.002E2	19.06E2
17.051E2	20.05E2
17.099E2	19.20E2
17.147E2	18.02E2
17.196E2	19.71E2
17.244E2	17.45E2
17.292E2	19.10E2
17.34E2	17.85E2
17.389E2	18.02E2
17.437E2	21.67E2
17.485E2	16.85E2
17.533E2	17.84E2
17.581E2	17.92E2
17.629E2	17.16E2
17.677E2	18.37E2
17.725E2	18.49E2
17.773E2	19.20E2
17.821E2	18.09E2
17.868E2	18.45E2
17.916E2	17.63E2
17.964E2	17.65E2
18.012E2	17.90E2
18.059E2	18.65E2
18.107E2	17.44E2
18.155E2	19.61E2
18.202E2	18.83E2
18.25E2	19.67E2
18.297E2	17.85E2
18.345E2	18.64E2
18.392E2	19.38E2
18.44E2	18.83E2
18.487E2	17.08E2
18.534E2	18.58E2
18.582E2	19.56E2
18.629E2	18.66E2
18.676E2	17.52E2
18.723E2	19.27E2
18.77E2	19.58E2
18.818E2	18.68E2
18.865E2	18.59E2
18.912E2	19.42E2
18.959E2	18.36E2
19.006E2	18.93E2
19.053E2	18.49E2
19.10E2	17.76E2
19.147E2	18.50E2
19.193E2	18.07E2
19.24E2	18.65E2
19.287E2	18.66E2
19.334E2	18.81E2
19.381E2	17.95E2
19.427E2	17.61E2
19.474E2	17.96E2
19.52E2	19.18E2
19.567E2	19.27E2
19.614E2	17.73E2
19.66E2	20.13E2
19.707E2	17.96E2
19.753E2	18.26E2
19.80E2	18.49E2
19.846E2	20.52E2
19.892E2	18.81E2
19.939E2	20.47E2
19.985E2	18.91E2
20.031E2	18.03E2
20.077E2	18.30E2
20.123E2	21.37E2
20.17E2	19.48E2
20.216E2	19.10E2
20.262E2	19.62E2
20.308E2	19.29E2
20.354E2	19.82E2
20.40E2	19.25E2
20.446E2	20.16E2
20.492E2	17.85E2
20.538E2	18.97E2
20.583E2	19.36E2
20.629E2	18.72E2
20.675E2	19.02E2
20.721E2	19.82E2
20.767E2	20.75E2
20.812E2	17.97E2
20.858E2	18.28E2
20.903E2	18.14E2
20.949E2	18.82E2
20.995E2	18.95E2
21.04E2	19.43E2
21.086E2	20.22E2
21.131E2	18.90E2
21.177E2	18.36E2
21.222E2	19.44E2
21.267E2	20.00E2
21.313E2	19.99E2
21.358E2	18.34E2
21.403E2	18.55E2
21.448E2	18.00E2
21.494E2	18.70E2
21.539E2	18.51E2
21.584E2	19.69E2
21.629E2	20.85E2
21.674E2	20.35E2
21.719E2	18.60E2
21.764E2	20.76E2
21.809E2	19.35E2
21.854E2	19.70E2
21.899E2	19.14E2
21.944E2	18.12E2
21.988E2	19.07E2
22.033E2	19.94E2
22.078E2	19.62E2
22.123E2	20.00E2
22.168E2	19.05E2
22.212E2	19.70E2
22.257E2	19.23E2
22.301E2	20.01E2
22.346E2	18.62E2
22.391E2	18.95E2
22.435E2	18.69E2
22.48E2	19.31E2
22.524E2	19.44E2
22.568E2	19.51E2
22.613E2	20.66E2
22.657E2	19.78E2
22.701E2	20.24E2
22.746E2	18.91E2
22.79E2	17.84E2
22.834E2	18.81E2
22.878E2	19.82E2
22.923E2	19.35E2
22.967E2	19.42E2
23.011E2	19.54E2
23.055E2	19.19E2
23.099E2	18.13E2
23.143E2	20.32E2
23.187E2	20.20E2
23.231E2	20.76E2
23.275E2	20.20E2
23.319E2	20.43E2
23.362E2	19.10E2
23.406E2	20.35E2
23.45E2	20.37E2
23.494E2	19.57E2
23.538E2	20.74E2
23.581E2	19.97E2
23.625E2	20.07E2
23.669E2	21.12E2
23.712E2	21.82E2
23.756E2	20.85E2
23.799E2	20.98E2
23.843E2	19.25E2
23.886E2	21.73E2
23.93E2	20.45E2
23.973E2	21.63E2
24.016E2	19.16E2
24.06E2	21.29E2
24.103E2	18.95E2
24.146E2	19.65E2
24.19E2	20.70E2
24.233E2	21.21E2
24.276E2	21.59E2
24.319E2	20.27E2
24.362E2	22.54E2
24.405E2	21.61E2
24.448E2	18.74E2
24.492E2	20.45E2
24.535E2	20.95E2
24.578E2	19.60E2
24.62E2	20.58E2
24.663E2	20.66E2
24.706E2	20.58E2
24.749E2	20.01E2
24.792E2	20.24E2
24.835E2	19.50E2
24.877E2	20.83E2
24.92E2	20.87E2
24.963E2	20.30E2
25.006E2	19.94E2
25.048E2	21.50E2
25.091E2	20.59E2
25.133E2	20.07E2
25.176E2	20.32E2
25.218E2	19.80E2
25.261E2	23.59E2
25.303E2	20.89E2
25.346E2	20.75E2
25.388E2	20.36E2
25.431E2	22.05E2
25.473E2	21.42E2
25.515E2	19.97E2
25.558E2	21.42E2
25.60E2	21.19E2
25.642E2	20.81E2
25.684E2	21.49E2
25.726E2	20.87E2
25.769E2	21.89E2
25.811E2	21.00E2
25.853E2	21.72E2
25.895E2	21.14E2
25.937E2	21.74E2
25.979E2	20.64E2
26.021E2	20.63E2
26.063E2	23.00E2
26.104E2	21.12E2
26.146E2	21.06E2
26.188E2	21.29E2
26.23E2	20.95E2
26.272E2	20.18E2
26.313E2	21.01E2
26.355E2	22.48E2
26.397E2	21.33E2
26.439E2	21.06E2
26.48E2	23.21E2
26.522E2	22.27E2
26.563E2	22.79E2
26.605E2	22.22E2
26.646E2	24.33E2
26.688E2	24.46E2
26.729E2	23.32E2
26.771E2	26.80E2
26.812E2	26.94E2
26.853E2	28.31E2
26.895E2	28.93E2
26.936E2	26.06E2
26.977E2	27.28E2
27.019E2	27.82E2
27.06E2	25.98E2
27.101E2	22.73E2
27.142E2	23.64E2
27.183E2	23.76E2
27.224E2	23.10E2
27.265E2	21.48E2
27.306E2	22.27E2
27.347E2	22.79E2
27.388E2	22.41E2
27.429E2	23.38E2
27.47E2	22.26E2
27.511E2	21.80E2
27.552E2	21.32E2
27.593E2	21.25E2
27.634E2	22.05E2
27.674E2	22.16E2
27.715E2	24.29E2
27.756E2	21.53E2
27.797E2	21.78E2
27.837E2	22.22E2
27.878E2	23.03E2
27.919E2	22.81E2
27.959E2	22.41E2
28.00E2	22.14E2
28.04E2	20.72E2
28.081E2	22.05E2
28.121E2	22.44E2
28.162E2	21.26E2
28.202E2	22.29E2
28.242E2	22.29E2
28.283E2	24.69E2
28.323E2	21.52E2
28.363E2	22.24E2
28.404E2	22.37E2
28.444E2	21.33E2
28.484E2	22.89E2
28.524E2	21.32E2
28.564E2	24.42E2
28.604E2	22.90E2
28.645E2	21.88E2
28.685E2	20.45E2
28.725E2	21.76E2
28.765E2	21.48E2
28.805E2	21.74E2
28.845E2	24.50E2
28.885E2	22.62E2
28.924E2	22.16E2
28.964E2	22.49E2
29.004E2	23.59E2
29.044E2	22.36E2
29.084E2	22.26E2
29.123E2	22.18E2
29.163E2	22.75E2
29.203E2	21.67E2
29.243E2	23.51E2
29.282E2	22.06E2
29.322E2	24.53E2
29.361E2	22.41E2
29.401E2	22.70E2
29.441E2	23.69E2
29.48E2	23.80E2
29.52E2	22.39E2
29.559E2	23.57E2
29.598E2	22.32E2
29.638E2	23.61E2
29.677E2	23.83E2
29.717E2	21.84E2
29.756E2	22.08E2
29.795E2	22.27E2
29.834E2	22.98E2
29.874E2	22.09E2
29.913E2	22.68E2
29.952E2	23.08E2
29.991E2	22.98E2
30.03E2	23.55E2
30.069E2	23.13E2
30.108E2	22.92E2
30.147E2	23.00E2
30.186E2	26.06E2
30.225E2	22.91E2
30.264E2	21.39E2
30.303E2	24.31E2
30.342E2	25.49E2
30.381E2	24.03E2
30.42E2	24.18E2
30.459E2	24.94E2
30.498E2	23.85E2
30.536E2	24.61E2
30.575E2	24.45E2
30.614E2	25.78E2
30.652E2	24.82E2
30.691E2	24.96E2
30.73E2	24.56E2
30.768E2	24.92E2
30.807E2	25.08E2
30.845E2	24.60E2
30.884E2	25.26E2
30.922E2	23.76E2
30.961E2	25.64E2
30.999E2	24.96E2
31.038E2	25.36E2
31.076E2	25.06E2
31.115E2	25.04E2
31.153E2	24.83E2
31.191E2	26.42E2
31.229E2	24.77E2
31.268E2	24.75E2
31.306E2	25.96E2
31.344E2	25.44E2
31.382E2	26.21E2
31.421E2	25.87E2
31.459E2	28.20E2
31.497E2	25.38E2
31.535E2	27.28E2
31.573E2	28.19E2
31.611E2	26.80E2
31.649E2	28.66E2
31.687E2	28.21E2
31.725E2	28.74E2
31.763E2	29.37E2
31.801E2	28.19E2
31.838E2	29.35E2
31.876E2	28.82E2
31.914E2	28.95E2
31.952E2	28.75E2
31.99E2	30.17E2
32.027E2	30.12E2
32.065E2	30.30E2
32.103E2	29.66E2
32.14E2	31.05E2
32.178E2	29.41E2
32.216E2	30.78E2
32.253E2	31.81E2
32.291E2	30.40E2
32.328E2	31.92E2
32.366E2	31.54E2
32.403E2	33.04E2
32.441E2	32.81E2
32.478E2	29.66E2
32.515E2	30.11E2
32.553E2	32.51E2
32.59E2	31.83E2
32.627E2	31.56E2
32.665E2	32.55E2
32.702E2	30.94E2
32.739E2	33.84E2
32.776E2	32.00E2
32.813E2	31.81E2
32.851E2	32.66E2
32.888E2	32.65E2
32.925E2	31.12E2
32.962E2	32.51E2
32.999E2	33.48E2
33.036E2	31.56E2
33.073E2	34.98E2
33.11E2	33.44E2
33.147E2	31.67E2
33.184E2	33.16E2
33.221E2	33.12E2
33.258E2	33.14E2
33.294E2	33.35E2
33.331E2	33.23E2
33.368E2	32.66E2
33.405E2	33.54E2
33.442E2	34.03E2
33.478E2	33.00E2
33.515E2	34.24E2
33.552E2	35.48E2
33.588E2	34.13E2
33.625E2	33.73E2
33.661E2	35.71E2
33.698E2	35.97E2
33.735E2	35.38E2
33.771E2	36.34E2
33.808E2	35.27E2
33.844E2	35.71E2
33.88E2	35.52E2
33.917E2	36.72E2
33.953E2	36.92E2
33.99E2	37.44E2
34.026E2	35.86E2
34.062E2	36.09E2
34.099E2	35.12E2
34.135E2	34.59E2
34.171E2	35.84E2
34.207E2	37.17E2
34.243E2	37.21E2
34.28E2	35.10E2
34.316E2	35.46E2
34.352E2	37.82E2
34.388E2	34.91E2
34.424E2	38.33E2
34.46E2	34.64E2
34.496E2	35.97E2
34.532E2	36.15E2
34.568E2	36.51E2
34.604E2	36.16E2
34.64E2	37.38E2
34.676E2	36.13E2
34.712E2	35.75E2
34.747E2	36.20E2
34.783E2	36.48E2
34.819E2	37.27E2
34.855E2	35.82E2
34.891E2	35.38E2
34.926E2	34.87E2
34.962E2	35.41E2
34.998E2	35.53E2
35.033E2	33.46E2
35.069E2	33.42E2
35.105E2	32.48E2
35.14E2	32.74E2
35.176E2	32.74E2
35.211E2	33.65E2
35.247E2	31.19E2
35.282E2	32.59E2
35.318E2	32.28E2
35.353E2	32.00E2
35.388E2	31.80E2
35.424E2	29.45E2
35.459E2	31.16E2
35.494E2	32.61E2
35.53E2	31.92E2
35.565E2	28.55E2
35.60E2	29.16E2
35.635E2	28.99E2
35.671E2	29.41E2
35.706E2	28.45E2
35.741E2	29.57E2
35.776E2	28.36E2
35.811E2	28.55E2
35.846E2	28.44E2
35.881E2	28.88E2
35.916E2	31.77E2
35.951E2	29.85E2
35.986E2	28.46E2
36.021E2	26.64E2
36.056E2	26.95E2
36.091E2	29.15E2
36.126E2	27.70E2
36.161E2	26.88E2
36.196E2	29.81E2
36.231E2	28.04E2
36.265E2	27.09E2
36.30E2	25.03E2
36.335E2	26.56E2
36.37E2	25.62E2
36.404E2	25.18E2
36.439E2	25.13E2
36.474E2	25.57E2
36.508E2	25.82E2
36.543E2	25.40E2
36.577E2	24.88E2
36.612E2	27.80E2
36.647E2	23.99E2
36.681E2	24.14E2
36.715E2	24.04E2
36.75E2	23.90E2
36.784E2	22.37E2
36.819E2	23.85E2
36.853E2	24.16E2
36.888E2	24.24E2
36.922E2	23.66E2
36.956E2	23.78E2
36.99E2	26.00E2
37.025E2	22.50E2
37.059E2	22.77E2
37.093E2	23.55E2
37.127E2	23.34E2
37.162E2	23.32E2
37.196E2	22.68E2
37.23E2	23.71E2
37.264E2	22.33E2
37.298E2	24.56E2
37.332E2	22.45E2
37.366E2	24.56E2
37.40E2	23.55E2
37.434E2	24.37E2
37.468E2	24.56E2
37.502E2	22.96E2
37.536E2	24.03E2
37.57E2	21.96E2
37.604E2	25.15E2
37.638E2	22.47E2
37.671E2	21.72E2
37.705E2	23.87E2
37.739E2	23.65E2
37.773E2	25.24E2
37.806E2	23.72E2
37.84E2	23.02E2
37.874E2	22.92E2
37.908E2	21.84E2
37.941E2	21.42E2
37.975E2	20.56E2
38.008E2	21.97E2
38.042E2	24.03E2
38.076E2	22.26E2
38.109E2	21.84E2
38.143E2	23.19E2
38.176E2	22.25E2
38.209E2	23.59E2
38.243E2	24.04E2
38.276E2	22.12E2
38.31E2	23.43E2
38.343E2	23.25E2
38.376E2	22.66E2
38.41E2	22.74E2
38.443E2	23.06E2
38.476E2	24.07E2
38.51E2	23.00E2
38.543E2	22.01E2
38.576E2	21.74E2
38.609E2	22.18E2
38.642E2	22.05E2
38.675E2	23.59E2
38.709E2	22.45E2
38.742E2	22.54E2
38.775E2	22.16E2
38.808E2	22.72E2
38.841E2	22.96E2
38.874E2	21.27E2
38.907E2	23.36E2
38.94E2	23.09E2
38.973E2	22.40E2
39.006E2	21.94E2
39.038E2	21.04E2
39.071E2	22.47E2
39.104E2	22.26E2
39.137E2	22.45E2
39.17E2	21.21E2
39.203E2	22.96E2
39.235E2	22.60E2
39.268E2	23.17E2
39.301E2	22.90E2
39.333E2	22.31E2
39.366E2	25.31E2
39.399E2	22.96E2
39.431E2	24.48E2
39.464E2	22.90E2
39.497E2	23.73E2
39.529E2	24.39E2
39.562E2	23.25E2
39.594E2	23.19E2
39.627E2	23.34E2
39.659E2	23.79E2
39.692E2	24.62E2
39.724E2	23.85E2
39.756E2	22.82E2
39.789E2	22.88E2
39.821E2	24.24E2
39.853E2	22.96E2
39.886E2	24.39E2
39.918E2	24.21E2
39.95E2	22.45E2
39.983E2	23.30E2
40.015E2	23.22E2
40.047E2	22.39E2
40.079E2	23.66E2
40.111E2	22.44E2
40.143E2	24.12E2
40.176E2	23.71E2
40.208E2	23.81E2
40.24E2	23.66E2
40.272E2	22.90E2
40.304E2	25.78E2
40.336E2	22.43E2
40.368E2	23.42E2
40.40E2	22.64E2
40.432E2	23.02E2
40.464E2	22.52E2
40.495E2	23.59E2
40.527E2	22.83E2
40.559E2	22.67E2
40.591E2	22.29E2
40.623E2	24.07E2
40.655E2	22.35E2
40.686E2	22.75E2
40.718E2	23.06E2
40.75E2	23.82E2
40.782E2	24.73E2
40.813E2	23.50E2
40.845E2	23.97E2
40.876E2	23.03E2
40.908E2	23.13E2
40.94E2	22.20E2
40.971E2	22.28E2
41.003E2	23.59E2
41.034E2	22.39E2
41.066E2	23.69E2
41.097E2	22.35E2
41.129E2	22.86E2
41.16E2	22.96E2
41.192E2	22.43E2
41.223E2	23.57E2
41.254E2	23.23E2
41.286E2	24.46E2
41.317E2	23.34E2
41.348E2	22.79E2
41.38E2	22.05E2
41.411E2	23.23E2
41.442E2	22.53E2
41.473E2	23.93E2
41.505E2	25.36E2
41.536E2	23.23E2
41.567E2	23.00E2
41.598E2	23.59E2
41.629E2	24.30E2
41.66E2	22.27E2
41.691E2	23.45E2
41.723E2	22.63E2
41.754E2	24.33E2
41.785E2	22.42E2
41.816E2	23.06E2
41.847E2	23.89E2
41.877E2	22.79E2
41.908E2	22.53E2
41.939E2	24.46E2
41.97E2	22.86E2
42.001E2	23.46E2
42.032E2	23.78E2
42.063E2	23.34E2
42.094E2	23.92E2
42.124E2	22.97E2
42.155E2	22.16E2
42.186E2	23.26E2
42.217E2	25.85E2
42.247E2	24.16E2
42.278E2	23.67E2
42.309E2	24.48E2
42.339E2	25.03E2
42.37E2	24.94E2
42.40E2	23.08E2
42.431E2	25.11E2
42.462E2	22.53E2
42.492E2	24.67E2
42.523E2	23.36E2
42.553E2	23.05E2
42.584E2	25.60E2
42.614E2	23.42E2
42.644E2	23.53E2
42.675E2	22.96E2
42.705E2	22.11E2
42.736E2	24.42E2
42.766E2	23.59E2
42.796E2	24.56E2
42.827E2	24.09E2
42.857E2	24.22E2
42.887E2	24.65E2
42.917E2	21.88E2
42.948E2	24.22E2
42.978E2	24.20E2
43.008E2	23.59E2
43.038E2	24.18E2
43.068E2	23.50E2
43.098E2	23.33E2
43.129E2	23.63E2
43.159E2	26.31E2
43.189E2	22.85E2
43.219E2	23.91E2
43.249E2	23.99E2
43.279E2	23.53E2
43.309E2	23.36E2
43.339E2	25.82E2
43.369E2	23.57E2
43.399E2	22.86E2
43.428E2	23.93E2
43.458E2	23.36E2
43.488E2	24.18E2
43.518E2	22.70E2
43.548E2	22.98E2
43.578E2	22.75E2
43.607E2	26.04E2
43.637E2	22.96E2
43.667E2	24.18E2
43.697E2	25.05E2
43.726E2	23.23E2
43.756E2	24.78E2
43.786E2	24.39E2
43.815E2	23.02E2
43.845E2	22.50E2
43.874E2	25.76E2
43.904E2	21.71E2
43.934E2	23.49E2
43.963E2	24.43E2
43.993E2	25.66E2
44.022E2	24.05E2
44.052E2	22.75E2
44.081E2	23.05E2
44.111E2	22.60E2
44.14E2	23.67E2
44.169E2	24.33E2
44.199E2	23.84E2
44.228E2	22.94E2
44.257E2	22.41E2
44.287E2	23.55E2
44.316E2	22.92E2
44.345E2	21.27E2
44.375E2	23.63E2
44.404E2	24.48E2
44.433E2	24.58E2
44.462E2	21.49E2
44.491E2	21.95E2
44.52E2	22.79E2
