Wavenumber, Raw Data , Baseline Subtracted, Baseline , Fine Filter , Thresholded 
cm-1, counts, counts, counts, counts, counts
Data from RamanShift Node
Date: Mon Dec 02 14:34:52 GMT 2013
User: Ion2
Spectrometer: V532-0003
Autoset integration time: false
Trigger mode: 0
Integration Time (sec): 2.000000E1
Scans to average: 1
Nonlinearity correction enabled: false
Boxcar width: 0
Stray light correction enabled: false
XAxis mode: Wavelengths
Storing dark spectrum: false
Number of Pixels in Spectrum: 1024
>>>>>Begin Spectral Data<<<<<
9.963100e+02,1950,-9.114848e+01,2.041148e+03,-2.655606e+02,4.081982e+01,1.608672e+01,9.477600e+01,1467,Location of 2D,2.702428e+03
1.001700e+03,1737,-3.045153e+02,2.041515e+03,-3.366829e+02,4.051839e+01,1.641338e+01,1.008400e+02,1357,Scale of 2D,2.915092e+01
1007,1732,-3.098697e+02,2.041870e+03,-3.384677e+02,3.571611e+01,1.674609e+01,1.068900e+02,1410,Area of 2D,8.686886e+05
1.012400e+03,1693,-3.492245e+02,2.042224e+03,-2.789258e+02,1.240916e+01,1.709743e+01,1.129400e+02,1431,Height of 2D,9.485539e+03
1.017800e+03,1687,-3.555731e+02,2.042573e+03,-2.909861e+02,7.151194e+00,1.746192e+01,1.189800e+02,1484,Location of G,1.585875e+03
1.023100e+03,1815,-2.279094e+02,2.042909e+03,-2.834682e+02,1.683600e+00,1.783315e+01,1.250300e+02,1391,Scale of G,1.648140e+01
1.028400e+03,1729,-3.142399e+02,2.043240e+03,-2.578025e+02,-1.783038e+00,1.821848e+01,1.310600e+02,1413,Area of G,5.391105e+05
1.033800e+03,1868,-1.755708e+02,2.043571e+03,-2.298444e+02,-2.623913e+00,1.862642e+01,1.370900e+02,1468,Height of G,1.041199e+04
1.039100e+03,1792,-2.518900e+02,2.043890e+03,-2.227370e+02,-9.780806e-01,1.904271e+01,1.431200e+02,1402,Location of D,1.352922e+03
1.044500e+03,1914,-1.302097e+02,2.044210e+03,-2.176242e+02,-1.965980e+00,1.948404e+01,1.491400e+02,1482,Scale of D,2.267883e+01
1.049800e+03,1891,-1.535181e+02,2.044518e+03,-2.092210e+02,-2.386462e+00,1.993507e+01,1.551600e+02,1404,Area of D,9.077667e+04
1.055100e+03,1739,-3.058213e+02,2.044821e+03,-1.942404e+02,-1.941712e+00,2.040489e+01,1.611700e+02,1417,Height of D,1.274101e+03
1.060400e+03,1853,-1.921194e+02,2.045119e+03,-1.888260e+02,-1.162221e+00,2.089466e+01,1.671800e+02,1437,Location of D+Dpp,2.459476e+03
1.065800e+03,1790,-2.554180e+02,2.045418e+03,-2.062629e+02,-1.080687e+00,2.141551e+01,1.731800e+02,1358,Scale of D+Dpp,1.685005e+01
1.071100e+03,1975,-7.070610e+01,2.045706e+03,-2.008378e+02,-1.501194e+00,2.194953e+01,1.791800e+02,1406,Area of D+Dpp,2.221859e+04
1.076400e+03,1832,-2.139895e+02,2.045989e+03,-1.872651e+02,-1.121746e+00,2.250766e+01,1.851700e+02,1478,Height of D+Dpp,4.197255e+02
1.081700e+03,1794,-2.522682e+02,2.046268e+03,-1.896877e+02,-6.851110e-01,2.309152e+01,1.911600e+02,1430,Location of Dp,0
1087,1931,-1.155424e+02,2.046542e+03,-1.981050e+02,1.922981e-01,2.370290e+01,1.971400e+02,1387,Scale of Dp,0
1.092300e+03,1836,-2.108122e+02,2.046812e+03,-2.106607e+02,1.840176e-01,2.434372e+01,2.031200e+02,1320,Area of Dp,0
1.097600e+03,1838,-2.090777e+02,2.047078e+03,-2.004971e+02,2.695936e-01,2.501611e+01,2.091000e+02,1394,Height of Dp,0
1.102900e+03,1733,-3.143389e+02,2.047339e+03,-2.086151e+02,1.155170e+00,2.572240e+01,2.150700e+02,1379,Location of D+Dp,0
1.108200e+03,1889,-1.585960e+02,2.047596e+03,-2.254432e+02,2.118297e+00,2.646515e+01,2.210300e+02,1425,Scale of D+Dp,0
1.113400e+03,1905,-1.428444e+02,2.047844e+03,-2.154102e+02,7.508514e-01,2.723206e+01,2.269900e+02,1347,Area of D+Dp,0
1.118700e+03,1739,-3.090938e+02,2.048094e+03,-2.300870e+02,1.260920e+00,2.805568e+01,2.329500e+02,1347,Height of D+Dp,0
1124,1815,-2.333393e+02,2.048339e+03,-2.030457e+02,1.028170e+00,2.892509e+01,2.389000e+02,1413,Ratio of G to 2D,9.110206e-01
1.129300e+03,1908,-1.405812e+02,2.048581e+03,-2.065722e+02,5.464406e-01,2.984412e+01,2.448500e+02,1409,Scale of D to G,1.223686e-01
1.134500e+03,1737,-3.118151e+02,2.048815e+03,-2.156667e+02,1.340821e-01,3.079814e+01,2.507900e+02,1439,Ratio of D to 2D,7.444889e+00
1.139800e+03,1924,-1.250500e+02,2.049050e+03,-1.963292e+02,-4.129711e-01,3.182851e+01,2.567300e+02,1328,No Layers,2
1.145100e+03,1866,-1.832817e+02,2.049282e+03,-1.917020e+02,-1.257965e+00,3.292272e+01,2.626600e+02,1317,Date of Analysis,240618
1.150300e+03,1843,-2.065058e+02,2.049506e+03,-1.940711e+02,-3.438099e-01,3.406406e+01,2.685900e+02,1442
1.155600e+03,1876,-1.737311e+02,2.049731e+03,-1.818663e+02,-9.071717e-01,3.530303e+01,2.745100e+02,1423
1.160800e+03,1849,-2.009493e+02,2.049949e+03,-1.822293e+02,-9.154646e-01,3.660011e+01,2.804300e+02,1486
1166,1893,-1.571646e+02,2.050165e+03,-1.751609e+02,-4.992679e-01,3.798601e+01,2.863400e+02,1421
1.171300e+03,1824,-2.263814e+02,2.050381e+03,-1.772327e+02,-1.769296e-01,3.949946e+01,2.922500e+02,1499
1.176500e+03,1923,-1.275914e+02,2.050591e+03,-1.894441e+02,-5.867148e-02,4.109394e+01,2.981600e+02,1388
1.181800e+03,1917,-1.338029e+02,2.050803e+03,-1.875101e+02,7.044663e-01,4.284322e+01,3.040600e+02,1350
1187,1830,-2.210080e+02,2.051008e+03,-1.852880e+02,3.900868e-01,4.469522e+01,3.099600e+02,1450
1.192200e+03,1792,-2.592109e+02,2.051211e+03,-1.822060e+02,1.079758e+00,4.669758e+01,3.158500e+02,1353
1.197400e+03,1864,-1.874116e+02,2.051412e+03,-1.758365e+02,1.153133e+00,4.886863e+01,3.217400e+02,1385
1.202600e+03,1910,-1.416102e+02,2.051610e+03,-1.857502e+02,1.622428e+00,5.122967e+01,3.276200e+02,1293
1.207800e+03,1847,-2.048068e+02,2.051807e+03,-1.792333e+02,1.218252e+00,5.380562e+01,3.335000e+02,1414
1.213100e+03,1969,-8.300537e+01,2.052005e+03,-1.827145e+02,2.769180e+00,5.668258e+01,3.393700e+02,1408
1.218300e+03,1849,-2.031984e+02,2.052198e+03,-1.631935e+02,1.764992e+00,5.978720e+01,3.452400e+02,1418
1.223500e+03,1877,-1.753898e+02,2.052390e+03,-1.652422e+02,1.593441e+00,6.321254e+01,3.511000e+02,1414
1.228700e+03,1769,-2.835796e+02,2.052580e+03,-1.550037e+02,1.377009e+00,6.700796e+01,3.569600e+02,1513
1.233800e+03,2002,-5.076434e+01,2.052764e+03,-1.374775e+02,7.319764e-01,7.114714e+01,3.628200e+02,1682
1239,1897,-1.559514e+02,2.052951e+03,-1.222357e+02,-9.538583e-01,7.586318e+01,3.686700e+02,1564
1.244200e+03,1920,-1.331372e+02,2.053137e+03,-1.122778e+02,6.378733e-01,8.116696e+01,3.745100e+02,1708
1.249400e+03,2093,3.967808e+01,2.053322e+03,-6.574743e+01,3.479583e-01,8.716654e+01,3.803500e+02,1664
1.254600e+03,1957,-9.650558e+01,2.053506e+03,-7.421652e+01,7.601133e-01,9.399612e+01,3.861900e+02,1821
1.259700e+03,1948,-1.056848e+02,2.053685e+03,-7.111276e+01,2.584500e+00,1.016628e+02,3.920200e+02,1879
1.264900e+03,2096,4.213325e+01,2.053867e+03,-4.329390e+01,2.886438e+00,1.106764e+02,3.978500e+02,1752
1.270100e+03,1944,-1.100480e+02,2.054048e+03,-4.490289e+01,3.282283e+00,1.211678e+02,4.036800e+02,1952
1.275200e+03,1920,-1.342251e+02,2.054225e+03,-3.865363e+01,6.204644e+00,1.332307e+02,4.094900e+02,2045
1.280400e+03,2116,6.159483e+01,2.054405e+03,-9.752983e-01,6.657575e+00,1.477880e+02,4.153100e+02,2034
1.285600e+03,2083,2.841515e+01,2.054585e+03,4.056058e+01,5.730958e+00,1.652250e+02,4.211200e+02,2043
1.290700e+03,2002,-5.276077e+01,2.054761e+03,6.409727e+01,9.951251e+00,1.859016e+02,4.269200e+02,1942
1.295800e+03,2213,1.580635e+02,2.054936e+03,1.119194e+02,1.142870e+01,2.111516e+02,4.327300e+02,1880
1301,2388,3.328844e+02,2.055116e+03,1.413135e+02,1.154289e+01,2.430562e+02,4.385200e+02,1948
1.306100e+03,2110,5.470881e+01,2.055291e+03,1.812796e+02,1.241626e+01,2.823408e+02,4.443100e+02,1855
1.311300e+03,2256,2.005296e+02,2.055470e+03,2.848169e+02,1.123655e+01,3.333048e+02,4.501000e+02,1919
1.316400e+03,2323,2.673537e+02,2.055646e+03,3.703536e+02,4.811992e+00,3.976538e+02,4.558900e+02,1965
1.321500e+03,2364,3.081775e+02,2.055822e+03,4.241762e+02,1.162900e+00,4.810081e+02,4.616600e+02,2021
1.326600e+03,2728,6.720009e+02,2.055999e+03,5.969984e+02,-9.637198e+00,5.890918e+02,4.674400e+02,1997
1.331800e+03,2813,7.568203e+02,2.056180e+03,7.381064e+02,-1.849850e+01,7.302858e+02,4.732100e+02,2013
1.336900e+03,2766,7.096427e+02,2.056357e+03,8.687851e+02,-2.490267e+01,8.997441e+02,4.789700e+02,2034
1342,3321,1.264464e+03,2.056536e+03,9.871775e+02,-3.038033e+01,1.086010e+03,4.847300e+02,1986
1.347100e+03,3245,1.188285e+03,2.056715e+03,1.061712e+03,-3.587839e+01,1.249176e+03,4.904900e+02,1912
1.352200e+03,3239,1.182105e+03,2.056895e+03,1.071675e+03,-3.183358e+01,1.328867e+03,4.962400e+02,2047
1.357300e+03,3194,1.136924e+03,2.057076e+03,1.091065e+03,-2.801735e+01,1.286734e+03,5.019900e+02,1934
1.362400e+03,3251,1.193742e+03,2.057258e+03,9.871682e+02,-2.036029e+01,1.145573e+03,5.077300e+02,1963
1.367500e+03,2884,8.265587e+02,2.057441e+03,8.965566e+02,-1.246244e+01,9.651743e+02,5.134700e+02,2049
1.372600e+03,2903,8.453741e+02,2.057626e+03,7.740867e+02,-3.384979e+00,7.933366e+02,5.192100e+02,1885
1.377700e+03,2595,5.371882e+02,2.057812e+03,6.251868e+02,4.819009e+00,6.503560e+02,5.249400e+02,1973
1.382700e+03,2612,5.540045e+02,2.057996e+03,4.728569e+02,1.128424e+01,5.405214e+02,5.306600e+02,1908
1.387800e+03,2383,3.248155e+02,2.058184e+03,3.476689e+02,1.490452e+01,4.549748e+02,5.363800e+02,1913
1.392900e+03,2153,9.462496e+01,2.058375e+03,2.689077e+02,1.609628e+01,3.903980e+02,5.421000e+02,1935
1398,2186,1.274326e+02,2.058567e+03,1.798597e+02,1.623087e+01,3.417095e+02,5.478100e+02,1882
1403,2009,-4.975777e+01,2.058758e+03,9.838069e+01,1.431241e+01,3.056035e+02,5.535200e+02,1858
1.408100e+03,2353,2.940461e+02,2.058954e+03,6.675747e+01,1.167147e+01,2.777766e+02,5.592200e+02,1910
1.413100e+03,1973,-8.614817e+01,2.059148e+03,6.984650e+01,6.716296e+00,2.572984e+02,5.649200e+02,1978
1.418200e+03,2043,-1.634845e+01,2.059348e+03,4.564828e+01,6.879455e+00,2.418518e+02,5.706200e+02,1895
1.423200e+03,2163,1.034530e+02,2.059547e+03,6.201871e+01,3.858990e+00,2.309918e+02,5.763100e+02,1921
1.428300e+03,2176,1.162482e+02,2.059752e+03,3.410171e+01,2.132354e+00,2.235093e+02,5.819900e+02,1889
1.433300e+03,2018,-4.195498e+01,2.059955e+03,4.061091e+01,1.426141e+00,2.191602e+02,5.876800e+02,1845
1.438400e+03,2125,6.483527e+01,2.060165e+03,4.397475e+01,2.450542e+00,2.173859e+02,5.933500e+02,1846
1.443400e+03,2159,9.862708e+01,2.060373e+03,4.805033e+01,1.140264e+00,2.180064e+02,5.990300e+02,1986
1.448400e+03,2020,-4.058373e+01,2.060584e+03,1.926670e+01,2.931977e+00,2.208152e+02,6.046900e+02,1803
1.453500e+03,2068,7.198443e+00,2.060802e+03,5.162319e+01,9.931127e-01,2.258678e+02,6.103600e+02,1927
1.458500e+03,2193,1.319821e+02,2.061018e+03,5.783460e+01,9.318029e-01,2.329749e+02,6.160200e+02,2010
1.463500e+03,1976,-8.523724e+01,2.061237e+03,5.432816e+01,1.433777e+00,2.422935e+02,6.216700e+02,1792
1.468500e+03,2246,1.845405e+02,2.061460e+03,7.181870e+01,1.976569e+00,2.539734e+02,6.273300e+02,1864
1.473500e+03,2170,1.083151e+02,2.061685e+03,7.916390e+01,9.969102e-01,2.682408e+02,6.329700e+02,1797
1.478600e+03,2136,7.408197e+01,2.061918e+03,9.393449e+01,2.221334e+00,2.857848e+02,6.386200e+02,1820
1.483600e+03,2144,8.185009e+01,2.062150e+03,1.177018e+02,3.041695e+00,3.063439e+02,6.442500e+02,1887
1.488600e+03,2121,5.861485e+01,2.062385e+03,1.066086e+02,5.580387e+00,3.307817e+02,6.498900e+02,1834
1.493600e+03,2298,2.353762e+02,2.062624e+03,1.216555e+02,7.751714e+00,3.598132e+02,6.555200e+02,2045
1.498600e+03,2144,8.113391e+01,2.062866e+03,1.396995e+02,1.096794e+01,3.943680e+02,6.611400e+02,1878
1.503600e+03,2170,1.068880e+02,2.063112e+03,1.868828e+02,1.502906e+01,4.356611e+02,6.667600e+02,1924
1.508500e+03,2277,2.136434e+02,2.063357e+03,2.124909e+02,2.278814e+01,4.842060e+02,6.723800e+02,1950
1.513500e+03,2264,2.003901e+02,2.063610e+03,2.266666e+02,3.249824e+01,5.440744e+02,6.779900e+02,2076
1.518500e+03,2476,4.121328e+02,2.063867e+03,2.879820e+02,4.661243e+01,6.172246e+02,6.836000e+02,1937
1.523500e+03,2302,2.378715e+02,2.064128e+03,3.872935e+02,6.499196e+01,7.075732e+02,6.892000e+02,1710
1.528500e+03,2399,3.346062e+02,2.064394e+03,5.080295e+02,8.888167e+01,8.205753e+02,6.948000e+02,1835
1.533400e+03,2575,5.103420e+02,2.064658e+03,6.569043e+02,1.107183e+02,9.607393e+02,7.004000e+02,1933
1.538400e+03,2867,8.020683e+02,2.064932e+03,8.456319e+02,1.256856e+02,1.144754e+03,7.059900e+02,1773
1.543300e+03,3124,1.058796e+03,2.065204e+03,1.180356e+03,1.249386e+02,1.380953e+03,7.115800e+02,2053
1.548300e+03,3308,1.242513e+03,2.065487e+03,1.644790e+03,1.047222e+02,1.703142e+03,7.171600e+02,1845
1.553300e+03,3799,1.733226e+03,2.065774e+03,2.305791e+03,5.887315e+01,2.144512e+03,7.227400e+02,1888
1.558200e+03,4647,2.580940e+03,2.066060e+03,3.179217e+03,-8.873889e+00,2.747663e+03,7.283100e+02,1967
1.563200e+03,5652,3.585644e+03,2.066356e+03,4.277637e+03,-9.298417e+01,3.620360e+03,7.338800e+02,1843
1.568100e+03,7204,5.137349e+03,2.066651e+03,5.499911e+03,-1.769271e+02,4.833903e+03,7.394500e+02,1918
1573,8983,6.916049e+03,2.066951e+03,6.662752e+03,-2.471884e+02,6.486092e+03,7.450100e+02,1858
1578,10815,8.747738e+03,2.067262e+03,7.571016e+03,-2.874578e+02,8.496220e+03,7.505700e+02,1813
1.582900e+03,11866,9.798429e+03,2.067571e+03,8.101990e+03,-2.915395e+02,1.010239e+04,7.561200e+02,1769
1.587800e+03,11941,9.873114e+03,2.067886e+03,8.135959e+03,-2.554539e+02,1.029021e+04,7.616700e+02,1855
1.592800e+03,11007,8.938788e+03,2.068212e+03,7.711637e+03,-1.897519e+02,8.867476e+03,7.672100e+02,1794
1.597700e+03,9371,7.302463e+03,2.068537e+03,6.840311e+03,-1.058663e+02,6.891082e+03,7.727500e+02,1870
1.602600e+03,7444,5.375132e+03,2.068868e+03,5.698123e+03,-2.121747e+01,5.146737e+03,7.782900e+02,1697
1.607500e+03,6015,3.945797e+03,2.069203e+03,4.468357e+03,5.085181e+01,3.842555e+03,7.838200e+02,2002
1.612400e+03,4718,2.648456e+03,2.069544e+03,3.340159e+03,9.948028e+01,2.916705e+03,7.893500e+02,1875
1.617300e+03,3873,1.803109e+03,2.069891e+03,2.430527e+03,1.243292e+02,2.262418e+03,7.948700e+02,1903
1.622200e+03,3335,1.264757e+03,2.070243e+03,1.757746e+03,1.256352e+02,1.793527e+03,8.003900e+02,1754
1.627100e+03,3112,1.041400e+03,2.070600e+03,1.268531e+03,1.110392e+02,1.450616e+03,8.059000e+02,1921
1632,3006,9.350361e+02,2.070964e+03,9.405958e+02,8.788002e+01,1.194409e+03,8.114100e+02,1733
1.636900e+03,2737,6.656667e+02,2.071333e+03,7.246548e+02,6.450854e+01,9.990150e+02,8.169200e+02,1906
1.641800e+03,2593,5.212914e+02,2.071709e+03,5.767079e+02,4.444731e+01,8.471631e+02,8.224200e+02,1958
1.646700e+03,2425,3.529100e+02,2.072090e+03,4.437561e+02,3.112070e+01,7.271219e+02,8.279200e+02,1809
1.651600e+03,2364,2.915226e+02,2.072477e+03,3.389411e+02,2.130430e+01,6.307659e+02,8.334100e+02,1754
1.656500e+03,2302,2.291289e+02,2.072871e+03,2.552628e+02,1.553280e+01,5.523560e+02,8.389000e+02,2108
1.661300e+03,2184,1.107372e+02,2.073263e+03,1.814365e+02,1.261025e+01,4.889644e+02,8.443900e+02,1809
1.666200e+03,2275,2.013310e+02,2.073669e+03,1.247468e+02,1.067953e+01,4.349686e+02,8.498700e+02,1798
1.671100e+03,2154,7.991831e+01,2.074082e+03,8.605067e+01,8.063170e+00,3.895558e+02,8.553500e+02,2001
1.675900e+03,2079,4.507730e+00,2.074492e+03,4.077789e+01,8.050821e+00,3.517443e+02,8.608200e+02,1762
1.680800e+03,2031,-4.391797e+01,2.074918e+03,3.049736e+01,5.826301e+00,3.186699e+02,8.662900e+02,1788
1.685700e+03,2096,2.064961e+01,2.075350e+03,-2.502809e+00,4.267086e+00,2.901668e+02,8.717600e+02,1785
1.690500e+03,1988,-8.778059e+01,2.075781e+03,-1.693829e+01,3.381301e+00,2.659082e+02,8.772200e+02,1861
1.695400e+03,2115,3.877344e+01,2.076227e+03,-1.580904e+01,2.883272e+00,2.442598e+02,8.826700e+02,1836
1.700200e+03,2047,-2.967020e+01,2.076670e+03,-3.739959e+01,1.985241e+00,2.256192e+02,8.881300e+02,1670
1.705100e+03,2056,-2.113007e+01,2.077130e+03,-4.499712e+01,2.205546e+00,2.088055e+02,8.935700e+02,1766
1.709900e+03,2090,1.241252e+01,2.077587e+03,-1.888729e+01,-5.414619e-01,1.941841e+02,8.990200e+02,1830
1.714700e+03,1883,-1.950518e+02,2.078052e+03,-3.778315e+01,-6.874021e-03,1.811318e+02,9.044600e+02,1762
1.719600e+03,2046,-3.253312e+01,2.078533e+03,-5.040035e+01,-4.682049e-01,1.692028e+02,9.098900e+02,1784
1.724400e+03,2174,9.498825e+01,2.079012e+03,-6.073914e+01,-1.313127e+00,1.587020e+02,9.153300e+02,1712
1.729200e+03,1986,-9.349757e+01,2.079498e+03,-4.594230e+01,-2.680541e+00,1.492221e+02,9.207500e+02,1802
1734,1962,-1.179907e+02,2.079991e+03,-2.758135e+01,-1.517343e+00,1.406364e+02,9.261800e+02,1929
1.738900e+03,1987,-9.350159e+01,2.080502e+03,-3.608352e+01,-2.060221e+00,1.326823e+02,9.316000e+02,1849
1.743700e+03,2197,1.159904e+02,2.081010e+03,-8.573600e+01,-2.520778e-01,1.255909e+02,9.370100e+02,1839
1.748500e+03,2015,-6.652516e+01,2.081525e+03,-8.182459e+01,-1.329695e+00,1.191134e+02,9.424200e+02,1699
1.753300e+03,1990,-9.204829e+01,2.082048e+03,-9.692079e+01,5.396269e-01,1.131820e+02,9.478300e+02,1856
1.758100e+03,1830,-2.525791e+02,2.082579e+03,-9.688034e+01,7.558971e-01,1.077379e+02,9.532300e+02,1811
1.762900e+03,2017,-6.611768e+01,2.083118e+03,-1.308476e+02,1.792567e+00,1.027303e+02,9.586300e+02,1615
1.767700e+03,1860,-2.236641e+02,2.083664e+03,-1.475371e+02,6.741343e-01,9.811463e+01,9.640300e+02,1695
1.772500e+03,1991,-9.321843e+01,2.084218e+03,-1.522327e+02,9.434127e-01,9.385199e+01,9.694200e+02,1776
1.777300e+03,1963,-1.217808e+02,2.084781e+03,-1.410792e+02,-1.588084e-02,8.990822e+01,9.748000e+02,1786
1.782100e+03,1902,-1.833512e+02,2.085351e+03,-1.645051e+02,1.351402e+00,8.625318e+01,9.801900e+02,1846
1.786800e+03,1961,-1.249176e+02,2.085918e+03,-1.629392e+02,2.615428e-01,8.292845e+01,9.855600e+02,1642
1.791600e+03,1912,-1.745043e+02,2.086504e+03,-1.903797e+02,1.147147e+00,7.976933e+01,9.909400e+02,1748
1.796400e+03,1857,-2.300993e+02,2.087099e+03,-1.842570e+02,1.110345e+00,7.682819e+01,9.963100e+02,1950
1.801200e+03,1875,-2.127027e+02,2.087703e+03,-1.792855e+02,1.469522e+00,7.408629e+01,1.001700e+03,1737
1.805900e+03,1803,-2.853018e+02,2.088302e+03,-2.018938e+02,2.126602e+00,7.157847e+01,1007,1732
1.810700e+03,2010,-7.892206e+01,2.088922e+03,-2.076534e+02,2.546948e+00,6.918325e+01,1.012400e+03,1693
1.815500e+03,1941,-1.485510e+02,2.089551e+03,-2.107054e+02,1.395863e+00,6.694236e+01,1.017800e+03,1687
1.820200e+03,1807,-2.831753e+02,2.090175e+03,-2.071945e+02,1.489737e+00,6.488600e+01,1.023100e+03,1815
1825,1876,-2.148216e+02,2.090822e+03,-1.819780e+02,4.325337e-01,6.291592e+01,1.028400e+03,1729
1.829700e+03,1840,-2.514631e+02,2.091463e+03,-1.950560e+02,-4.450143e-01,6.110474e+01,1.033800e+03,1868
1.834500e+03,1904,-1.881270e+02,2.092127e+03,-1.944265e+02,-5.308429e-01,5.936657e+01,1.039100e+03,1792
1.839200e+03,1984,-1.087860e+02,2.092786e+03,-1.736629e+02,-2.110499e+00,5.776605e+01,1.044500e+03,1914
1844,1923,-1.704680e+02,2.093468e+03,-1.627655e+02,-2.281987e+00,5.622780e+01,1.049800e+03,1891
1.848700e+03,1950,-1.441447e+02,2.094145e+03,-1.534485e+02,-1.428985e+00,5.480947e+01,1.055100e+03,1739
1.853400e+03,1957,-1.378303e+02,2.094830e+03,-1.658527e+02,-9.352875e-01,5.347225e+01,1.060400e+03,1853
1.858200e+03,1957,-1.385398e+02,2.095540e+03,-1.819803e+02,-6.596237e-02,5.218483e+01,1.065800e+03,1790
1.862900e+03,1910,-1.862437e+02,2.096244e+03,-1.824007e+02,1.382896e+00,5.099593e+01,1.071100e+03,1975
1.867600e+03,1822,-2.749567e+02,2.096957e+03,-1.681182e+02,1.395083e+00,4.987349e+01,1.076400e+03,1832
1.872300e+03,1876,-2.216790e+02,2.097679e+03,-1.902735e+02,3.150199e+00,4.881347e+01,1.081700e+03,1794
1877,1925,-1.734105e+02,2.098410e+03,-2.012933e+02,2.937964e+00,4.781212e+01,1087,1931
1.881800e+03,2055,-4.416728e+01,2.099167e+03,-2.034653e+02,1.137976e+00,4.684643e+01,1.092300e+03,1836
1.886500e+03,1807,-2.929179e+02,2.099918e+03,-1.859325e+02,2.972310e-01,4.595344e+01,1.097600e+03,1838
1.891200e+03,1885,-2.156780e+02,2.100678e+03,-1.579806e+02,-4.160115e-02,4.510951e+01,1.102900e+03,1733
1.895900e+03,1900,-2.014477e+02,2.101448e+03,-1.506099e+02,-1.886551e+00,4.431195e+01,1.108200e+03,1889
1.900600e+03,1950,-1.522270e+02,2.102227e+03,-1.578180e+02,-2.482525e+00,4.355826e+01,1.113400e+03,1905
1.905300e+03,2077,-2.601620e+01,2.103016e+03,-1.300334e+02,-2.503055e+00,4.284615e+01,1.118700e+03,1739
1910,1982,-1.218152e+02,2.103815e+03,-1.185443e+02,-1.984809e+00,4.217347e+01,1124,1815
1.914700e+03,2010,-9.462407e+01,2.104624e+03,-1.396364e+02,6.028238e-01,4.153823e+01,1.129300e+03,1908
1.919300e+03,2007,-9.842543e+01,2.105425e+03,-1.437386e+02,1.406787e+00,4.095102e+01,1.134500e+03,1737
1924,1971,-1.352542e+02,2.106254e+03,-1.491365e+02,1.190406e+00,4.038461e+01,1.139800e+03,1924
1.928700e+03,1758,-3.490930e+02,2.107093e+03,-1.563990e+02,1.831164e+00,3.985056e+01,1.145100e+03,1866
1.933400e+03,1927,-1.809421e+02,2.107942e+03,-1.619574e+02,2.378044e+00,3.934740e+01,1.150300e+03,1843
1.938100e+03,2045,-6.380150e+01,2.108802e+03,-1.538114e+02,3.371703e-01,3.887376e+01,1.155600e+03,1876
1.942700e+03,1937,-1.726526e+02,2.109653e+03,-1.458187e+02,-5.036991e-01,3.843757e+01,1.160800e+03,1849
1.947400e+03,1977,-1.335326e+02,2.110533e+03,-1.096935e+02,-1.511915e+00,3.801869e+01,1166,1893
1952,2070,-4.140405e+01,2.111404e+03,-1.002902e+02,-1.614013e+00,3.763389e+01,1.171300e+03,1824
1.956700e+03,2033,-7.930492e+01,2.112305e+03,-1.116117e+02,-1.418064e+00,3.726545e+01,1.176500e+03,1923
1.961400e+03,2017,-9.621645e+01,2.113216e+03,-1.160863e+02,-3.363986e-01,3.692104e+01,1.181800e+03,1917
1966,1999,-1.151190e+02,2.114119e+03,-1.060002e+02,1.738438e-01,3.660637e+01,1187,1830
1.970700e+03,1972,-1.430519e+02,2.115052e+03,-1.120675e+02,1.667670e+00,3.630696e+01,1.192200e+03,1792
1.975300e+03,1912,-2.039755e+02,2.115975e+03,-1.199997e+02,1.879859e+00,3.603481e+01,1.197400e+03,1864
1980,2054,-6.292998e+01,2.116930e+03,-1.250857e+02,2.361441e+00,3.577739e+01,1.202600e+03,1910
1.984600e+03,2034,-8.387489e+01,2.117875e+03,-1.164680e+02,1.132819e+00,3.554501e+01,1.207800e+03,1847
1.989200e+03,1984,-1.348305e+02,2.118830e+03,-1.052868e+02,5.938219e-01,3.533142e+01,1.213100e+03,1969
1.993900e+03,1988,-1.318179e+02,2.119818e+03,-8.611635e+01,1.406284e-01,3.513202e+01,1.218300e+03,1849
1.998500e+03,2066,-5.479522e+01,2.120795e+03,-7.409675e+01,-4.105298e-01,3.495480e+01,1.223500e+03,1877
2.003100e+03,2057,-6.478343e+01,2.121783e+03,-6.909124e+01,-1.284048e+00,3.479485e+01,1.228700e+03,1769
2.007700e+03,2053,-6.978259e+01,2.122783e+03,-7.038247e+01,-5.820567e-01,3.465177e+01,1.233800e+03,2002
2.012300e+03,2145,2.120724e+01,2.123793e+03,-3.611033e+01,-2.202418e+00,3.452514e+01,1239,1897
2017,2076,-4.883635e+01,2.124836e+03,-4.684932e+01,-1.263595e+00,3.441240e+01,1.244200e+03,1920
2.021600e+03,1982,-1.438690e+02,2.125869e+03,-5.259950e+01,-2.471360e-01,3.431801e+01,1.249400e+03,2093
2.026200e+03,2235,1.080871e+02,2.126913e+03,-3.821809e+01,-1.855347e+00,3.423909e+01,1.254600e+03,1957
2.030800e+03,1998,-1.299681e+02,2.127968e+03,-3.884803e+01,-2.430905e+00,3.417537e+01,1.259700e+03,1948
2.035400e+03,2024,-1.050347e+02,2.129035e+03,-2.505762e+01,-1.492176e+00,3.412662e+01,1.264900e+03,2096
2040,2161,3.088725e+01,2.130113e+03,-2.113580e+01,-2.692223e+00,3.409260e+01,1.270100e+03,1944
2.044600e+03,2148,1.679769e+01,2.131202e+03,-6.050770e+01,-1.680118e+00,3.407314e+01,1.275200e+03,1920
2.049200e+03,2180,4.769654e+01,2.132303e+03,-4.317688e+01,-7.986259e-01,3.406804e+01,1.280400e+03,2116
2.053800e+03,2017,-1.164163e+02,2.133416e+03,-2.600054e+01,-1.419175e+00,3.407718e+01,1.285600e+03,2083
2.058300e+03,1967,-1.675163e+02,2.134516e+03,-5.912161e+01,6.746565e-01,3.409976e+01,1.290700e+03,2002
2.062900e+03,2127,-8.652361e+00,2.135652e+03,-7.468303e+01,1.192978e+00,3.413670e+01,1.295800e+03,2213
2.067500e+03,2152,1.519966e+01,2.136800e+03,-1.016812e+02,4.500708e-01,3.418755e+01,1301,2388
2.072100e+03,1937,-2.009603e+02,2.137960e+03,-1.116912e+02,1.870429e+00,3.425226e+01,1.306100e+03,2110
2.076700e+03,2047,-9.213223e+01,2.139132e+03,-9.271287e+01,2.005073e+00,3.433078e+01,1.311300e+03,2256
2.081200e+03,1999,-1.412904e+02,2.140290e+03,-9.203230e+01,7.968651e-01,3.442095e+01,1.316400e+03,2323
2.085800e+03,1955,-1.864864e+02,2.141486e+03,-1.115067e+02,1.290699e+00,3.452677e+01,1.321500e+03,2364
2.090300e+03,2108,-3.466814e+01,2.142668e+03,-1.121322e+02,5.233025e-01,3.464365e+01,1.326600e+03,2728
2.094900e+03,2140,-3.888363e+00,2.143888e+03,-1.234842e+02,-3.011164e-01,3.477683e+01,1.331800e+03,2813
2.099500e+03,2024,-1.211210e+02,2.145121e+03,-1.181339e+02,-1.010442e-01,3.492392e+01,1.336900e+03,2766
2104,1941,-2.053388e+02,2.146339e+03,-9.508160e+01,-9.827199e-01,3.508135e+01,1342,3321
2.108600e+03,1976,-1.715961e+02,2.147596e+03,-1.080415e+02,-1.505212e+00,3.525621e+01,1.347100e+03,3245
2.113100e+03,2045,-1.038383e+02,2.148838e+03,-1.171526e+02,-1.337913e+00,3.544102e+01,1.352200e+03,3239
2.117700e+03,2125,-2.512053e+01,2.150121e+03,-1.151334e+02,-1.831832e+00,3.564411e+01,1.357300e+03,3194
2.122200e+03,2026,-1.253872e+02,2.151387e+03,-1.102693e+02,-8.686087e-01,3.585682e+01,1.362400e+03,3251
2.126700e+03,2085,-6.766622e+01,2.152666e+03,-1.174137e+02,1.033279e+00,3.608358e+01,1.367500e+03,2884
2.131300e+03,2047,-1.069863e+02,2.153986e+03,-1.369990e+02,2.327002e+00,3.633009e+01,1.372600e+03,2903
2.135800e+03,1984,-1.712903e+02,2.155290e+03,-1.545971e+02,2.690350e+00,3.658586e+01,1.377700e+03,2595
2.140300e+03,1935,-2.216067e+02,2.156607e+03,-1.643506e+02,3.441330e+00,3.685630e+01,1.382700e+03,2612
2.144800e+03,1917,-2.409356e+02,2.157936e+03,-1.621166e+02,2.563739e+00,3.714169e+01,1.387800e+03,2383
2.149400e+03,2011,-1.483071e+02,2.159307e+03,-1.731770e+02,2.526958e+00,3.744915e+01,1.392900e+03,2153
2.153900e+03,1967,-1.936616e+02,2.160662e+03,-1.595357e+02,8.658231e-01,3.776561e+01,1398,2186
2.158400e+03,2110,-5.202876e+01,2.162029e+03,-1.407644e+02,-6.362571e-01,3.809792e+01,1403,2009
2.162900e+03,1979,-1.844087e+02,2.163409e+03,-1.118630e+02,-2.166909e+00,3.844643e+01,1.408100e+03,2353
2.167400e+03,2089,-7.580158e+01,2.164802e+03,-1.053989e+02,-1.893601e+00,3.881151e+01,1.413100e+03,1973
2.171900e+03,2076,-9.020734e+01,2.166207e+03,-1.019476e+02,-2.587523e+00,3.919358e+01,1.418200e+03,2043
2.176400e+03,2129,-3.862610e+01,2.167626e+03,-1.216522e+02,-9.671532e-01,3.959307e+01,1.423200e+03,2163
2.180900e+03,2066,-1.030579e+02,2.169058e+03,-1.080842e+02,-4.569874e-01,4.001043e+01,1.428300e+03,2176
2.185400e+03,2001,-1.695029e+02,2.170503e+03,-1.040960e+02,1.183580e-01,4.044618e+01,1.433300e+03,2018
2.189900e+03,1982,-1.899610e+02,2.171961e+03,-1.138352e+02,5.591307e-01,4.090085e+01,1.438400e+03,2125
2.194400e+03,2084,-8.943242e+01,2.173432e+03,-1.253019e+02,4.121484e-01,4.137500e+01,1.443400e+03,2159
2.198800e+03,2127,-4.788402e+01,2.174884e+03,-1.312105e+02,-8.450315e-01,4.185805e+01,1.448400e+03,2020
2.203300e+03,2018,-1.583819e+02,2.176382e+03,-1.274181e+02,-7.348644e-01,4.237258e+01,1.453500e+03,2068
2.207800e+03,2059,-1.188932e+02,2.177893e+03,-1.000628e+02,-1.698172e+00,4.290855e+01,1.458500e+03,2193
2.212300e+03,2035,-1.444180e+02,2.179418e+03,-9.714952e+01,-2.257247e+00,4.346668e+01,1.463500e+03,1976
2.216800e+03,2038,-1.429564e+02,2.180956e+03,-1.133923e+02,-1.963412e+00,4.404779e+01,1.468500e+03,2246
2.221200e+03,2184,1.526147e+00,2.182474e+03,-1.200772e+02,-1.012427e+00,4.463900e+01,1.473500e+03,2170
2.225700e+03,2115,-6.903937e+01,2.184039e+03,-1.363472e+02,1.346309e-01,4.526810e+01,1.478600e+03,2136
2.230100e+03,2024,-1.615834e+02,2.185583e+03,-1.391972e+02,2.326426e+00,4.590803e+01,1.483600e+03,2144
2.234600e+03,1982,-2.051763e+02,2.187176e+03,-1.422037e+02,3.171289e+00,4.658892e+01,1.488600e+03,2121
2.239100e+03,1956,-2.327831e+02,2.188783e+03,-1.687952e+02,3.906101e+00,4.729762e+01,1.493600e+03,2298
2.243500e+03,2026,-1.643677e+02,2.190368e+03,-1.823952e+02,2.656944e+00,4.801862e+01,1.498600e+03,2144
2248,2028,-1.640023e+02,2.192002e+03,-1.931570e+02,2.248591e+00,4.878595e+01,1.503600e+03,2170
2.252400e+03,2009,-1.846141e+02,2.193614e+03,-1.634989e+02,2.444692e-01,4.956683e+01,1.508500e+03,2277
2.256800e+03,2031,-1.642396e+02,2.195240e+03,-1.464207e+02,-5.477118e-01,5.037938e+01,1.513500e+03,2264
2.261300e+03,1960,-2.369161e+02,2.196916e+03,-1.265046e+02,-2.306929e+00,5.124471e+01,1.518500e+03,2476
2.265700e+03,2201,2.430820e+00,2.198569e+03,-1.164543e+02,-3.257989e+00,5.212602e+01,1.523500e+03,2302
2.270100e+03,2087,-1.132360e+02,2.200236e+03,-1.118464e+02,-3.768376e+00,5.304392e+01,1.528500e+03,2399
2.274600e+03,2177,-2.495508e+01,2.201955e+03,-1.328238e+02,-1.188824e+00,5.402252e+01,1.533400e+03,2575
2279,2110,-9.364996e+01,2.203650e+03,-1.245298e+02,-8.538516e-01,5.502045e+01,1.538400e+03,2867
2.283400e+03,2053,-1.523588e+02,2.205359e+03,-1.422499e+02,4.685651e-01,5.606126e+01,1.543300e+03,3124
2.287800e+03,1896,-3.110816e+02,2.207082e+03,-1.398412e+02,1.199294e+00,5.714744e+01,1.548300e+03,3308
2.292300e+03,2030,-1.788582e+02,2.208858e+03,-1.502983e+02,1.611676e+00,5.830805e+01,1.553300e+03,3799
2.296700e+03,2089,-1.216096e+02,2.210610e+03,-1.809125e+02,1.697528e+00,5.949454e+01,1.558200e+03,4647
2.301100e+03,2116,-9.637518e+01,2.212375e+03,-1.751124e+02,1.656681e+00,6.073543e+01,1.563200e+03,5652
2.305500e+03,2116,-9.815503e+01,2.214155e+03,-1.531837e+02,6.566500e-01,6.203437e+01,1.568100e+03,7204
2.309900e+03,1908,-3.079492e+02,2.215949e+03,-1.478351e+02,1.089110e+00,6.339537e+01,1573,8983
2.314300e+03,2106,-1.117578e+02,2.217758e+03,-1.496438e+02,5.258147e-01,6.482294e+01,1578,10815
2.318700e+03,2062,-1.575808e+02,2.219581e+03,-1.623241e+02,-3.436032e-01,6.632211e+01,1.582900e+03,11866
2.323100e+03,2080,-1.414184e+02,2.221418e+03,-1.571557e+02,-5.480653e-01,6.789855e+01,1.587800e+03,11941
2.327500e+03,2089,-1.342705e+02,2.223270e+03,-1.418589e+02,1.252073e-01,6.955864e+01,1.592800e+03,11007
2.331900e+03,2040,-1.851373e+02,2.225137e+03,-1.404338e+02,2.517017e-01,7.130966e+01,1.597700e+03,9371
2.336200e+03,2165,-6.197581e+01,2.226976e+03,-1.375949e+02,6.271828e-01,7.311670e+01,1.602600e+03,7444
2.340600e+03,2028,-2.008717e+02,2.228872e+03,-1.321992e+02,-6.672370e-02,7.507315e+01,1.607500e+03,6015
2345,2129,-1.017824e+02,2.230782e+03,-1.380977e+02,9.211807e-01,7.714918e+01,1.612400e+03,4718
2.349400e+03,2095,-1.377081e+02,2.232708e+03,-1.352966e+02,1.178288e+00,7.935761e+01,1.617300e+03,3873
2.353800e+03,2131,-1.036487e+02,2.234649e+03,-1.416594e+02,9.010718e-01,8.171351e+01,1.622200e+03,3335
2.358100e+03,2061,-1.755596e+02,2.236560e+03,-1.218878e+02,-1.732335e-02,8.417543e+01,1.627100e+03,3112
2.362500e+03,2073,-1.655300e+02,2.238530e+03,-1.159884e+02,7.652650e-02,8.687871e+01,1632,3006
2.366900e+03,2134,-1.065155e+02,2.240515e+03,-1.040973e+02,-1.160243e+00,8.979358e+01,1.636900e+03,2737
2.371200e+03,2180,-6.247051e+01,2.242471e+03,-1.075070e+02,-1.486607e+00,9.287633e+01,1.641800e+03,2593
2.375600e+03,2184,-6.048611e+01,2.244486e+03,-9.036008e+01,-2.062521e+00,9.630766e+01,1.646700e+03,2425
2.379900e+03,2192,-5.447072e+01,2.246471e+03,-7.408547e+01,-1.074793e+00,9.997642e+01,1.651600e+03,2364
2.384300e+03,2121,-1.275167e+02,2.248517e+03,-8.567642e+01,5.560811e-02,1.041111e+02,1.656500e+03,2302
2.388600e+03,2195,-5.553110e+01,2.250531e+03,-8.899657e+01,1.651493e+00,1.085951e+02,1.661300e+03,2184
2393,2201,-5.160769e+01,2.252608e+03,-8.861774e+01,2.308610e+00,1.137313e+02,1.666200e+03,2275
2.397300e+03,2067,-1.876521e+02,2.254652e+03,-9.696822e+01,4.810827e+00,1.194056e+02,1.671100e+03,2154
2.401600e+03,2171,-8.571151e+01,2.256712e+03,-9.832711e+01,6.361632e+00,1.258826e+02,1.675900e+03,2079
2406,2201,-5.783431e+01,2.258834e+03,-1.065653e+02,7.541383e+00,1.335576e+02,1.680800e+03,2031
2.410300e+03,2148,-1.129241e+02,2.260924e+03,-7.881196e+01,6.622983e+00,1.423693e+02,1.685700e+03,2096
2.414600e+03,2126,-1.370290e+02,2.263029e+03,-5.635952e+01,7.104376e+00,1.528702e+02,1.690500e+03,1988
2419,2152,-1.131985e+02,2.265199e+03,-2.406522e+01,5.337005e+00,1.659366e+02,1.695400e+03,2115
2.423300e+03,2410,1.426658e+02,2.267334e+03,1.363526e+00,3.439014e+00,1.817702e+02,1.700200e+03,2047
2.427600e+03,2239,-3.048510e+01,2.269485e+03,5.520550e+01,-9.998474e-02,2.017591e+02,1.705100e+03,2056
2.431900e+03,2412,1.403486e+02,2.271651e+03,1.196035e+02,-2.124506e+00,2.274961e+02,1.709900e+03,2090
2.436200e+03,2394,1.201669e+02,2.273833e+03,1.867000e+02,-5.724314e+00,2.611738e+02,1.714700e+03,1883
2.440500e+03,2540,2.639698e+02,2.276030e+03,2.179238e+02,-7.108011e+00,3.055211e+02,1.719600e+03,2046
2.444800e+03,2592,3.137571e+02,2.278243e+03,2.822749e+02,-1.037292e+01,3.629620e+02,1.724400e+03,2174
2.449200e+03,2637,3.564768e+02,2.280523e+03,3.149037e+02,-1.078927e+01,4.343376e+02,1.729200e+03,1986
2.453500e+03,2644,3.612325e+02,2.282767e+03,3.396596e+02,-1.078114e+01,5.054496e+02,1734,1962
2.457800e+03,2705,4.199726e+02,2.285027e+03,3.449713e+02,-9.512006e+00,5.526791e+02,1.738900e+03,1987
2462,2656,3.687499e+02,2.287250e+03,3.419816e+02,-8.981416e+00,5.521531e+02,1.743700e+03,2197
2.466300e+03,2583,2.934588e+02,2.289541e+03,3.249834e+02,-5.341059e+00,5.071586e+02,1.748500e+03,2015
2.470600e+03,2593,3.011517e+02,2.291848e+03,3.081123e+02,-3.753099e+00,4.441045e+02,1.753300e+03,1990
2.474900e+03,2587,2.928287e+02,2.294171e+03,2.575189e+02,-1.329350e-01,3.856585e+02,1.758100e+03,1830
2.479200e+03,2534,2.374897e+02,2.296510e+03,2.270449e+02,1.569315e+00,3.401899e+02,1.762900e+03,2017
2.483500e+03,2542,2.431347e+02,2.298865e+03,1.846978e+02,4.548886e+00,3.076645e+02,1.767700e+03,1860
2.487700e+03,2367,6.581887e+01,2.301181e+03,1.503346e+02,5.488094e+00,2.859307e+02,1.772500e+03,1991
2492,2459,1.554319e+02,2.303568e+03,1.178205e+02,6.447014e+00,2.713757e+02,1.777300e+03,1963
2.496300e+03,2303,-2.971231e+00,2.305971e+03,1.132904e+02,4.288262e+00,2.625713e+02,1.782100e+03,1902
2.500600e+03,2369,6.060932e+01,2.308391e+03,8.889510e+01,4.700016e+00,2.580497e+02,1.786800e+03,1961
2.504800e+03,2376,6.523036e+01,2.310770e+03,9.790432e+01,2.075507e+00,2.567953e+02,1.791600e+03,1912
2.509100e+03,2519,2.057786e+02,2.313221e+03,8.733417e+01,5.444061e-01,2.580671e+02,1.796400e+03,1857
2.513300e+03,2388,7.236787e+01,2.315632e+03,1.197477e+02,-1.537254e+00,2.613568e+02,1.801200e+03,1875
2.517600e+03,2447,1.288835e+02,2.318117e+03,1.307248e+02,-2.272450e+00,2.665085e+02,1.805900e+03,1803
2.521800e+03,2402,8.144084e+01,2.320559e+03,1.242488e+02,-3.374039e+00,2.730829e+02,1.810700e+03,2010
2.526100e+03,2547,2.239236e+02,2.323076e+03,1.037649e+02,-1.696741e+00,2.812639e+02,1.815500e+03,1941
2.530300e+03,2463,1.374488e+02,2.325551e+03,1.136849e+02,-2.341173e+00,2.906016e+02,1.820200e+03,1807
2.534600e+03,2348,1.989855e+01,2.328101e+03,1.055970e+02,-6.514033e-01,3.015130e+02,1825,1876
2.538800e+03,2393,6.239136e+01,2.330609e+03,8.677860e+01,1.446760e+00,3.134986e+02,1.829700e+03,1840
2.543100e+03,2475,1.418078e+02,2.333192e+03,7.237213e+01,2.132456e+00,3.271683e+02,1.834500e+03,1904
2.547300e+03,2408,7.226801e+01,2.335732e+03,4.166363e+01,2.504101e+00,3.419505e+02,1.839200e+03,1984
2.551500e+03,2288,-5.028799e+01,2.338288e+03,3.094727e+01,4.348481e+00,3.582349e+02,1844,1923
2.555800e+03,2464,1.230783e+02,2.340922e+03,5.207169e+01,4.030088e+00,3.765811e+02,1.848700e+03,1950
2560,2266,-7.751064e+01,2.343511e+03,3.118830e+01,4.801246e+00,3.962768e+02,1.853400e+03,1957
2.564200e+03,2291,-5.511596e+01,2.346116e+03,3.542230e+01,5.009392e+00,4.178955e+02,1.858200e+03,1957
2.568400e+03,2559,2.102623e+02,2.348738e+03,4.835404e+01,4.809647e+00,4.416342e+02,1.862900e+03,1910
2.572600e+03,2347,-4.375903e+00,2.351376e+03,5.370655e+01,4.560917e+00,4.677246e+02,1.867600e+03,1822
2.576900e+03,2456,1.019060e+02,2.354094e+03,7.761391e+01,5.038718e+00,4.971563e+02,1.872300e+03,1876
2.581100e+03,2397,4.023424e+01,2.356766e+03,1.006475e+02,5.667788e+00,5.288851e+02,1877,1925
2.585300e+03,2520,1.605459e+02,2.359454e+03,1.229501e+02,5.728997e+00,5.639368e+02,1.881800e+03,2055
2.589500e+03,2452,8.984084e+01,2.362159e+03,1.608073e+02,5.684092e+00,6.027495e+02,1.886500e+03,1807
2.593700e+03,2471,1.061191e+02,2.364881e+03,1.920854e+02,6.557546e+00,6.458387e+02,1.891200e+03,1885
2.597900e+03,2734,3.663805e+02,2.367620e+03,2.526420e+02,7.365151e+00,6.938125e+02,1.895900e+03,1900
2.602100e+03,2631,2.606250e+02,2.370375e+03,2.830388e+02,8.217650e+00,7.473908e+02,1.900600e+03,1950
2.606300e+03,2694,3.208526e+02,2.373147e+03,3.248474e+02,1.235615e+01,8.074293e+02,1.905300e+03,2077
2.610400e+03,2840,4.641299e+02,2.375870e+03,4.286391e+02,1.278416e+01,8.732458e+02,1910,1982
2.614600e+03,2752,3.733240e+02,2.378676e+03,4.801281e+02,1.699639e+01,9.492480e+02,1.914700e+03,2010
2.618800e+03,2764,3.825010e+02,2.381499e+03,5.640385e+02,2.175554e+01,1.035391e+03,1.919300e+03,2007
2623,3217,8.326608e+02,2.384339e+03,6.509319e+02,2.603336e+01,1.133449e+03,1924,1971
2.627200e+03,3114,7.268035e+02,2.387196e+03,7.576558e+02,2.937238e+01,1.245577e+03,1.928700e+03,1758
2.631300e+03,3238,8.479976e+02,2.390002e+03,8.986482e+02,3.705456e+01,1.371116e+03,1.933400e+03,1927
2.635500e+03,3322,9.291061e+02,2.392894e+03,1.114491e+03,3.982568e+01,1.519330e+03,1.938100e+03,2045
2.639700e+03,3607,1.211197e+03,2.395803e+03,1.279316e+03,4.676908e+01,1.691284e+03,1.942700e+03,1937
2.643900e+03,3759,1.360271e+03,2.398729e+03,1.533848e+03,5.241396e+01,1.891781e+03,1.947400e+03,1977
2648,4295,1.893398e+03,2.401602e+03,1.830496e+03,5.645477e+01,2.120656e+03,1952,2070
2.652200e+03,4391,1.986437e+03,2.404563e+03,2.177709e+03,5.904601e+01,2.396066e+03,1.956700e+03,2033
2.656300e+03,4916,2.508530e+03,2.407470e+03,2.575332e+03,6.034018e+01,2.713017e+03,1.961400e+03,2017
2.660500e+03,5335,2.924534e+03,2.410466e+03,3.046235e+03,5.300488e+01,3.096799e+03,1966,1999
2.664600e+03,5773,3.359593e+03,2.413407e+03,3.562109e+03,4.036024e+01,3.539841e+03,1.970700e+03,1972
2.668800e+03,6411,3.994563e+03,2.416437e+03,4.182692e+03,1.975586e+01,4.075234e+03,1.975300e+03,1912
2.672900e+03,7076,4.656587e+03,2.419413e+03,4.895114e+03,-1.048089e+01,4.687199e+03,1980,2054
2.677100e+03,7927,5.504522e+03,2.422478e+03,5.624090e+03,-4.337886e+01,5.410397e+03,1.984600e+03,2034
2.681200e+03,8756,6.330512e+03,2.425488e+03,6.391906e+03,-7.948848e+01,6.203678e+03,1.989200e+03,1984
2.685300e+03,9924,7.495485e+03,2.428515e+03,7.134857e+03,-1.151827e+02,7.056289e+03,1.993900e+03,1988
2.689500e+03,10459,8.027366e+03,2.431634e+03,7.804781e+03,-1.440596e+02,7.931498e+03,1.998500e+03,2066
2.693600e+03,11169,8.734304e+03,2.434696e+03,8.335984e+03,-1.608920e+02,8.693539e+03,2.003100e+03,2057
2.697700e+03,11633,9.195225e+03,2.437775e+03,8.667740e+03,-1.679124e+02,9.247159e+03,2.007700e+03,2053
2.701900e+03,11787,9.346053e+03,2.440947e+03,8.742479e+03,-1.595614e+02,9.487078e+03,2.012300e+03,2145
2706,11667,9.222939e+03,2.444061e+03,8.665354e+03,-1.424716e+02,9.349780e+03,2017,2076
2.710100e+03,11100,8.652808e+03,2.447192e+03,8.368355e+03,-1.152028e+02,8.875554e+03,2.021600e+03,1982
2.714200e+03,10469,8.018659e+03,2.450341e+03,7.877338e+03,-8.285217e+01,8.159933e+03,2.026200e+03,2235
2.718300e+03,9941,7.487492e+03,2.453508e+03,7.247743e+03,-4.936302e+01,7.320830e+03,2.030800e+03,1998
2.722400e+03,9112,6.655308e+03,2.456692e+03,6.552130e+03,-1.997592e+01,6.459641e+03,2.035400e+03,2024
2.726500e+03,8218,5.758107e+03,2.459893e+03,5.832071e+03,7.885284e+00,5.643949e+03,2040,2161
2.730600e+03,7402,4.938887e+03,2.463113e+03,5.134281e+03,2.875465e+01,4.908813e+03,2.044600e+03,2148
2.734700e+03,6820,4.353650e+03,2.466350e+03,4.421329e+03,4.476280e+01,4.266063e+03,2.049200e+03,2180
2.738800e+03,6082,3.612396e+03,2.469604e+03,3.779217e+03,5.312636e+01,3.713921e+03,2.053800e+03,2017
2.742900e+03,5607,3.134123e+03,2.472877e+03,3.193659e+03,5.771475e+01,3.244019e+03,2.058300e+03,1967
2747,4973,2.496833e+03,2.476167e+03,2.684368e+03,5.878036e+01,2.845660e+03,2.062900e+03,2127
2.751100e+03,4640,2.160524e+03,2.479476e+03,2.244774e+03,5.646230e+01,2.508075e+03,2.067500e+03,2152
2.755200e+03,4142,1.659198e+03,2.482802e+03,1.864031e+03,5.143780e+01,2.221453e+03,2.072100e+03,1937
2.759300e+03,3860,1.373854e+03,2.486146e+03,1.551556e+03,4.544186e+01,1.977303e+03,2.076700e+03,2047
2.763400e+03,3766,1.276492e+03,2.489508e+03,1.304348e+03,3.805818e+01,1.768474e+03,2.081200e+03,1999
2.767400e+03,3440,9.471938e+02,2.492806e+03,1.075265e+03,3.224185e+01,1.593105e+03,2.085800e+03,1955
2.771500e+03,3443,9.467956e+02,2.496204e+03,9.063193e+02,2.674763e+01,1.437639e+03,2.090300e+03,2108
2.775600e+03,3266,7.663792e+02,2.499621e+03,7.736409e+02,2.107415e+01,1.302781e+03,2.094900e+03,2140
2.779700e+03,3060,5.569446e+02,2.503055e+03,6.382300e+02,1.840919e+01,1.185238e+03,2.099500e+03,2024
2.783700e+03,2983,4.765760e+02,2.506424e+03,5.473729e+02,1.558877e+01,1.084664e+03,2104,1941
2.787800e+03,2955,4.451052e+02,2.509895e+03,4.380690e+02,1.365815e+01,9.938447e+02,2.108600e+03,1976
2.791900e+03,2842,3.286159e+02,2.513384e+03,3.490448e+02,1.253977e+01,9.136192e+02,2.113100e+03,2045
2.795900e+03,2828,3.111939e+02,2.516806e+03,2.930024e+02,1.077686e+01,8.440958e+02,2.117700e+03,2125
2800,2702,1.816680e+02,2.520332e+03,2.359421e+02,9.045874e+00,7.805480e+02,2.122200e+03,2026
2804,2667,1.432103e+02,2.523790e+03,1.945778e+02,7.813216e+00,7.250619e+02,2.126700e+03,2085
2.808100e+03,2692,1.646477e+02,2.527352e+03,1.690648e+02,4.796536e+00,6.739810e+02,2.131300e+03,2047
2.812100e+03,2608,7.715407e+01,2.530846e+03,1.376767e+02,3.021012e+00,6.290759e+02,2.135800e+03,1984
2.816200e+03,2690,1.555546e+02,2.534445e+03,1.338415e+02,1.718967e+00,5.874686e+02,2.140300e+03,1935
2.820200e+03,2688,1.500248e+02,2.537975e+03,1.175598e+02,6.989252e-01,5.506667e+02,2.144800e+03,1917
2.824200e+03,2633,9.147710e+01,2.541523e+03,9.112948e+01,1.547164e+00,5.171669e+02,2.149400e+03,2011
2.828300e+03,2700,1.548221e+02,2.545178e+03,8.338245e+01,1.371998e+00,4.858630e+02,2.153900e+03,1967
2.832300e+03,2578,2.923797e+01,2.548762e+03,5.834407e+01,1.955658e+00,4.579503e+02,2.158400e+03,2110
2.836300e+03,2532,-2.036419e+01,2.552364e+03,3.271609e+01,2.375676e+00,4.323490e+02,2.162900e+03,1979
2.840400e+03,2579,2.292481e+01,2.556075e+03,1.192701e+01,2.379365e+00,4.082506e+02,2.167400e+03,2089
2.844400e+03,2540,-1.971405e+01,2.559714e+03,-7.867568e+00,1.203833e+00,3.866130e+02,2.171900e+03,2076
2.848400e+03,2534,-2.937111e+01,2.563371e+03,-1.053755e+01,1.264295e+00,3.666371e+02,2.176400e+03,2129
2.852400e+03,2513,-5.404641e+01,2.567046e+03,9.046514e+00,-9.798513e-01,3.481589e+02,2.180900e+03,2066
2.856400e+03,2587,1.626000e+01,2.570740e+03,-4.946306e+00,-5.590583e-01,3.310340e+02,2.185400e+03,2001
2.860400e+03,2585,1.054808e+01,2.574452e+03,1.042471e+00,-1.248467e+00,3.151349e+02,2.189900e+03,1982
2.864500e+03,2695,1.167243e+02,2.578276e+03,-2.584434e+01,7.686128e-01,2.999921e+02,2.194400e+03,2084
2.868500e+03,2507,-7.502493e+01,2.582025e+03,-3.289252e+01,1.361207e+00,2.862419e+02,2.198800e+03,2127
2.872500e+03,2608,2.220739e+01,2.585793e+03,-4.781637e+01,3.275500e+00,2.734123e+02,2.203300e+03,2018
2.876500e+03,2372,-2.175788e+02,2.589579e+03,-5.461597e+01,3.508532e+00,2.614235e+02,2.207800e+03,2059
2.880500e+03,2490,-1.033836e+02,2.593384e+03,-8.254988e+01,4.695496e+00,2.502043e+02,2.212300e+03,2035
2.884500e+03,2509,-8.820701e+01,2.597207e+03,-8.307378e+01,3.127354e+00,2.396906e+02,2.216800e+03,2038
2.888500e+03,2564,-3.704908e+01,2.601049e+03,-8.747342e+01,2.433090e+00,2.298249e+02,2.221200e+03,2184
2.892400e+03,2526,-7.881312e+01,2.604813e+03,-3.889170e+01,2.200524e-01,2.207803e+02,2.225700e+03,2115
2.896400e+03,2530,-7.869220e+01,2.608692e+03,-2.932869e+01,-8.333891e-01,2.120470e+02,2.230100e+03,2024
2.900400e+03,2604,-8.590088e+00,2.612590e+03,-2.477025e+01,-1.866062e+00,2.038217e+02,2.234600e+03,1982
2.904400e+03,2739,1.224932e+02,2.616507e+03,-9.944829e+00,-3.804857e+00,1.960662e+02,2.239100e+03,1956
2.908400e+03,2584,-3.644248e+01,2.620442e+03,-6.723421e+00,-3.567737e+00,1.887453e+02,2.243500e+03,2026
2.912300e+03,2568,-5.629798e+01,2.624298e+03,1.333625e+01,-3.134697e+00,1.819958e+02,2248,2028
2.916300e+03,2695,6.672890e+01,2.628271e+03,1.248559e+00,-2.555530e+00,1.754431e+02,2.252400e+03,2009
2.920300e+03,2576,-5.626326e+01,2.632263e+03,-8.143751e+00,-2.256762e+00,1.692387e+02,2.256800e+03,2031
2.924300e+03,2698,6.172548e+01,2.636275e+03,-1.382617e+01,-4.404539e-01,1.633585e+02,2.261300e+03,1960
2.928200e+03,2547,-9.320391e+01,2.640204e+03,-1.425596e+01,-2.445348e-01,1.579164e+02,2.265700e+03,2201
2.932200e+03,2701,5.674699e+01,2.644253e+03,-4.670479e+01,2.555466e+00,1.526133e+02,2.270100e+03,2087
2.936100e+03,2572,-7.621939e+01,2.648219e+03,-4.287224e+01,1.996274e+00,1.476968e+02,2.274600e+03,2177
2.940100e+03,2593,-5.930651e+01,2.652307e+03,-6.563018e+01,2.184030e+00,1.428979e+02,2279,2110
2.944100e+03,2496,-1.604130e+02,2.656413e+03,-7.269248e+01,1.956292e+00,1.383302e+02,2.283400e+03,2053
2948,2631,-2.943539e+01,2.660435e+03,-7.661611e+01,1.322785e+00,1.340853e+02,2.287800e+03,1896
2952,2567,-9.758013e+01,2.664580e+03,-6.600202e+01,-1.073131e+00,1.299323e+02,2.292300e+03,2030
2.955900e+03,2526,-1.426400e+02,2.668640e+03,-5.896349e+01,-1.444568e+00,1.260671e+02,2.296700e+03,2089
2.959800e+03,2702,2.928158e+01,2.672718e+03,-3.622991e+01,-3.109872e+00,1.223729e+02,2.301100e+03,2116
2.963800e+03,2675,-1.920717e+00,2.676921e+03,-4.694370e+01,-3.032318e+00,1.187510e+02,2.305500e+03,2116
2.967700e+03,2671,-1.003683e+01,2.681037e+03,-5.766149e+01,-2.313517e+00,1.153733e+02,2.309900e+03,1908
2.971700e+03,2684,-1.277897e+00,2.685278e+03,-5.639810e+01,-1.015981e+00,1.120574e+02,2.314300e+03,2106
2.975600e+03,2585,-1.044319e+02,2.689432e+03,-7.502616e+01,3.808142e-01,1.089611e+02,2.318700e+03,2062
2.979500e+03,2521,-1.726047e+02,2.693605e+03,-9.308673e+01,2.491021e+00,1.059923e+02,2.323100e+03,2080
2.983400e+03,2564,-1.337962e+02,2.697796e+03,-1.135948e+02,2.544086e+00,1.031441e+02,2.327500e+03,2089
2.987400e+03,2601,-1.011149e+02,2.702115e+03,-1.371067e+02,3.139998e+00,1.003413e+02,2.331900e+03,2040
2.991300e+03,2578,-1.283447e+02,2.706345e+03,-1.367805e+02,2.388971e+00,9.771808e+01,2.336200e+03,2165
2.995200e+03,2557,-1.535935e+02,2.710593e+03,-1.370446e+02,1.437061e+00,9.519718e+01,2.340600e+03,2028
2.999100e+03,2549,-1.658612e+02,2.714861e+03,-1.190421e+02,-1.098097e+00,9.277340e+01,2345,2129
3003,2617,-1.021480e+02,2.719148e+03,-1.163290e+02,-1.784718e+00,9.044181e+01,2.349400e+03,2095
3.006900e+03,2549,-1.744538e+02,2.723454e+03,-1.067778e+02,-2.870910e+00,8.819780e+01,2.353800e+03,2131
3.010800e+03,2720,-7.778813e+00,2.727779e+03,-1.143886e+02,-2.238736e+00,8.603703e+01,2.358100e+03,2061
3.014700e+03,2650,-8.212295e+01,2.732123e+03,-1.065899e+02,-1.977517e+00,8.395544e+01,2.362500e+03,2073
3.018600e+03,2675,-6.148629e+01,2.736486e+03,-1.158105e+02,1.449262e-01,8.194920e+01,2.366900e+03,2134
3.022500e+03,2534,-2.068689e+02,2.740869e+03,-1.280503e+02,7.698523e-01,8.001473e+01,2.371200e+03,2180
3.026400e+03,2634,-1.112708e+02,2.745271e+03,-1.711666e+02,2.517712e+00,7.814863e+01,2.375600e+03,2184
3.030300e+03,2583,-1.666920e+02,2.749692e+03,-1.795879e+02,2.306391e+00,7.634772e+01,2.379900e+03,2192
3.034200e+03,2494,-2.601326e+02,2.754133e+03,-1.767428e+02,1.445620e+00,7.460900e+01,2.384300e+03,2121
3.038100e+03,2449,-3.095926e+02,2.758593e+03,-1.717744e+02,1.209828e+00,7.292964e+01,2.388600e+03,2195
3042,2622,-1.410721e+02,2.763072e+03,-1.668087e+02,-4.677272e-01,7.130696e+01,2393,2201
3.045900e+03,2726,-4.157109e+01,2.767571e+03,-1.628625e+02,-1.933027e+00,6.973844e+01,2.397300e+03,2067
3.049800e+03,2600,-1.720896e+02,2.772090e+03,-1.643644e+02,-1.606491e+00,6.822168e+01,2.401600e+03,2171
3.053600e+03,2700,-7.651120e+01,2.776511e+03,-1.530117e+02,-1.035524e+00,6.679147e+01,2406,2201
3.057500e+03,2642,-1.390685e+02,2.781068e+03,-1.562500e+02,-9.221898e-01,6.537042e+01,2.410300e+03,2148
3.061400e+03,2515,-2.706455e+02,2.785645e+03,-1.863650e+02,1.613001e+00,6.399478e+01,2.414600e+03,2126
3.065200e+03,2560,-2.301241e+02,2.790124e+03,-1.764824e+02,1.085500e+00,6.269626e+01,2419,2152
3.069100e+03,2631,-1.637400e+02,2.794740e+03,-2.194932e+02,3.056936e+00,6.140475e+01,2.423300e+03,2410
3073,2547,-2.523758e+02,2.799376e+03,-2.123636e+02,3.484997e+00,6.015322e+01,2.427600e+03,2239
3.076800e+03,2701,-1.029119e+02,2.803912e+03,-1.972537e+02,3.374790e+00,5.897070e+01,2.431900e+03,2412
3.080700e+03,2431,-3.775869e+02,2.808587e+03,-1.988772e+02,2.986531e+00,5.779341e+01,2.436200e+03,2394
3.084500e+03,2724,-8.916126e+01,2.813161e+03,-1.932347e+02,3.314046e+00,5.668033e+01,2.440500e+03,2540
3.088400e+03,2653,-1.648757e+02,2.817876e+03,-1.825944e+02,8.232564e-01,5.557151e+01,2.444800e+03,2592
3.092200e+03,2581,-2.414886e+02,2.822489e+03,-1.879910e+02,7.915959e-01,5.452253e+01,2.449200e+03,2637
3.096100e+03,2703,-1.242426e+02,2.827243e+03,-1.453898e+02,-7.349370e-01,5.347696e+01,2.453500e+03,2644
3.099900e+03,2654,-1.778941e+02,2.831894e+03,-1.362542e+02,-2.256374e+00,5.248725e+01,2.457800e+03,2705
3.103800e+03,2696,-1.406880e+02,2.836688e+03,-1.161207e+02,-2.832400e+00,5.150019e+01,2462,2656
3.107600e+03,2762,-7.937828e+01,2.841378e+03,-9.057805e+01,-3.440079e+00,5.056536e+01,2.466300e+03,2583
3.111500e+03,2821,-2.521203e+01,2.846212e+03,-8.875167e+01,-2.530893e+00,4.963251e+01,2.470600e+03,2593
3.115300e+03,2827,-2.394136e+01,2.850941e+03,-7.967702e+01,-2.528429e-01,4.874856e+01,2.474900e+03,2587
3.119100e+03,2793,-6.268999e+01,2.855690e+03,-8.417572e+01,2.040019e+00,4.788835e+01,2.479200e+03,2534
3.122900e+03,2749,-1.114580e+02,2.860458e+03,-8.997962e+01,4.211446e+00,4.705104e+01,2.483500e+03,2542
3.126800e+03,2751,-1.143716e+02,2.865372e+03,-1.069282e+02,6.663999e+00,4.621467e+01,2.487700e+03,2367
3.130600e+03,2698,-1.721789e+02,2.870179e+03,-1.107717e+02,7.126260e+00,4.542133e+01,2492,2459
3.134400e+03,2755,-1.200056e+02,2.875006e+03,-1.080634e+02,7.983412e+00,4.464855e+01,2.496300e+03,2303
3.138200e+03,2736,-1.438519e+02,2.879852e+03,-7.351762e+01,6.624741e+00,4.389563e+01,2.500600e+03,2369
3.142100e+03,2834,-5.084601e+01,2.884846e+03,-3.311635e+01,5.412495e+00,4.314283e+01,2.504800e+03,2376
3.145900e+03,2846,-4.373193e+01,2.889732e+03,1.655097e+01,3.548242e+00,4.242810e+01,2.509100e+03,2519
3.149700e+03,3025,1.303625e+02,2.894637e+03,6.277001e+01,2.768661e+00,4.173126e+01,2.513300e+03,2388
3.153500e+03,3068,1.684373e+02,2.899563e+03,1.088265e+02,1.233977e+00,4.105172e+01,2.517600e+03,2447
3.157300e+03,3080,1.754924e+02,2.904508e+03,1.538814e+02,7.314230e-01,4.038891e+01,2.521800e+03,2402
3.161100e+03,3113,2.035277e+02,2.909472e+03,2.179167e+02,4.892401e-03,3.974228e+01,2.526100e+03,2547
3.164900e+03,3093,1.785432e+02,2.914457e+03,2.590750e+02,5.477604e-01,3.911131e+01,2.530300e+03,2463
3.168700e+03,3184,2.645389e+02,2.919461e+03,3.090706e+02,2.604497e+00,3.849549e+01,2.534600e+03,2348
3.172500e+03,3329,4.045148e+02,2.924485e+03,3.564941e+02,2.848652e+00,3.789434e+01,2.538800e+03,2393
3.176300e+03,3348,4.184707e+02,2.929529e+03,4.243263e+02,2.624339e+00,3.730740e+01,2.543100e+03,2475
3.180100e+03,3453,5.184066e+02,2.934593e+03,4.779957e+02,7.526106e+00,3.673422e+01,2.547300e+03,2408
3.183800e+03,3447,5.074566e+02,2.939543e+03,5.120739e+02,1.107009e+01,3.618894e+01,2.551500e+03,2288
3.187600e+03,3623,6.783531e+02,2.944647e+03,5.602749e+02,1.556991e+01,3.564168e+01,2.555800e+03,2464
3.191400e+03,3504,5.542295e+02,2.949771e+03,6.181897e+02,1.893782e+01,3.510695e+01,2560,2266
3.195200e+03,3458,5.030858e+02,2.954914e+03,7.617843e+02,2.019961e+01,3.458437e+01,2.564200e+03,2291
3199,3702,7.419219e+02,2.960078e+03,8.253662e+02,0,3.407357e+01,2.568400e+03,2559
3.202700e+03,3789,8.238745e+02,2.965126e+03,8.743705e+02,0,3.358721e+01,2.572600e+03,2347
 , , , , , , ,2.576900e+03,2456
 , , , , , , ,2.581100e+03,2397
 , , , , , , ,2.585300e+03,2520
 , , , , , , ,2.589500e+03,2452
 , , , , , , ,2.593700e+03,2471
 , , , , , , ,2.597900e+03,2734
 , , , , , , ,2.602100e+03,2631
 , , , , , , ,2.606300e+03,2694
 , , , , , , ,2.610400e+03,2840
 , , , , , , ,2.614600e+03,2752
 , , , , , , ,2.618800e+03,2764
 , , , , , , ,2623,3217
 , , , , , , ,2.627200e+03,3114
 , , , , , , ,2.631300e+03,3238
 , , , , , , ,2.635500e+03,3322
 , , , , , , ,2.639700e+03,3607
 , , , , , , ,2.643900e+03,3759
 , , , , , , ,2648,4295
 , , , , , , ,2.652200e+03,4391
 , , , , , , ,2.656300e+03,4916
 , , , , , , ,2.660500e+03,5335
 , , , , , , ,2.664600e+03,5773
 , , , , , , ,2.668800e+03,6411
 , , , , , , ,2.672900e+03,7076
 , , , , , , ,2.677100e+03,7927
 , , , , , , ,2.681200e+03,8756
 , , , , , , ,2.685300e+03,9924
 , , , , , , ,2.689500e+03,10459
 , , , , , , ,2.693600e+03,11169
 , , , , , , ,2.697700e+03,11633
 , , , , , , ,2.701900e+03,11787
 , , , , , , ,2706,11667
 , , , , , , ,2.710100e+03,11100
 , , , , , , ,2.714200e+03,10469
 , , , , , , ,2.718300e+03,9941
 , , , , , , ,2.722400e+03,9112
 , , , , , , ,2.726500e+03,8218
 , , , , , , ,2.730600e+03,7402
 , , , , , , ,2.734700e+03,6820
 , , , , , , ,2.738800e+03,6082
 , , , , , , ,2.742900e+03,5607
 , , , , , , ,2747,4973
 , , , , , , ,2.751100e+03,4640
 , , , , , , ,2.755200e+03,4142
 , , , , , , ,2.759300e+03,3860
 , , , , , , ,2.763400e+03,3766
 , , , , , , ,2.767400e+03,3440
 , , , , , , ,2.771500e+03,3443
 , , , , , , ,2.775600e+03,3266
 , , , , , , ,2.779700e+03,3060
 , , , , , , ,2.783700e+03,2983
 , , , , , , ,2.787800e+03,2955
 , , , , , , ,2.791900e+03,2842
 , , , , , , ,2.795900e+03,2828
 , , , , , , ,2800,2702
 , , , , , , ,2804,2667
 , , , , , , ,2.808100e+03,2692
 , , , , , , ,2.812100e+03,2608
 , , , , , , ,2.816200e+03,2690
 , , , , , , ,2.820200e+03,2688
 , , , , , , ,2.824200e+03,2633
 , , , , , , ,2.828300e+03,2700
 , , , , , , ,2.832300e+03,2578
 , , , , , , ,2.836300e+03,2532
 , , , , , , ,2.840400e+03,2579
 , , , , , , ,2.844400e+03,2540
 , , , , , , ,2.848400e+03,2534
 , , , , , , ,2.852400e+03,2513
 , , , , , , ,2.856400e+03,2587
 , , , , , , ,2.860400e+03,2585
 , , , , , , ,2.864500e+03,2695
 , , , , , , ,2.868500e+03,2507
 , , , , , , ,2.872500e+03,2608
 , , , , , , ,2.876500e+03,2372
 , , , , , , ,2.880500e+03,2490
 , , , , , , ,2.884500e+03,2509
 , , , , , , ,2.888500e+03,2564
 , , , , , , ,2.892400e+03,2526
 , , , , , , ,2.896400e+03,2530
 , , , , , , ,2.900400e+03,2604
 , , , , , , ,2.904400e+03,2739
 , , , , , , ,2.908400e+03,2584
 , , , , , , ,2.912300e+03,2568
 , , , , , , ,2.916300e+03,2695
 , , , , , , ,2.920300e+03,2576
 , , , , , , ,2.924300e+03,2698
 , , , , , , ,2.928200e+03,2547
 , , , , , , ,2.932200e+03,2701
 , , , , , , ,2.936100e+03,2572
 , , , , , , ,2.940100e+03,2593
 , , , , , , ,2.944100e+03,2496
 , , , , , , ,2948,2631
 , , , , , , ,2952,2567
 , , , , , , ,2.955900e+03,2526
 , , , , , , ,2.959800e+03,2702
 , , , , , , ,2.963800e+03,2675
 , , , , , , ,2.967700e+03,2671
 , , , , , , ,2.971700e+03,2684
 , , , , , , ,2.975600e+03,2585
 , , , , , , ,2.979500e+03,2521
 , , , , , , ,2.983400e+03,2564
 , , , , , , ,2.987400e+03,2601
 , , , , , , ,2.991300e+03,2578
 , , , , , , ,2.995200e+03,2557
 , , , , , , ,2.999100e+03,2549
 , , , , , , ,3003,2617
 , , , , , , ,3.006900e+03,2549
 , , , , , , ,3.010800e+03,2720
 , , , , , , ,3.014700e+03,2650
 , , , , , , ,3.018600e+03,2675
 , , , , , , ,3.022500e+03,2534
 , , , , , , ,3.026400e+03,2634
 , , , , , , ,3.030300e+03,2583
 , , , , , , ,3.034200e+03,2494
 , , , , , , ,3.038100e+03,2449
 , , , , , , ,3042,2622
 , , , , , , ,3.045900e+03,2726
 , , , , , , ,3.049800e+03,2600
 , , , , , , ,3.053600e+03,2700
 , , , , , , ,3.057500e+03,2642
 , , , , , , ,3.061400e+03,2515
 , , , , , , ,3.065200e+03,2560
 , , , , , , ,3.069100e+03,2631
 , , , , , , ,3073,2547
 , , , , , , ,3.076800e+03,2701
 , , , , , , ,3.080700e+03,2431
 , , , , , , ,3.084500e+03,2724
 , , , , , , ,3.088400e+03,2653
 , , , , , , ,3.092200e+03,2581
 , , , , , , ,3.096100e+03,2703
 , , , , , , ,3.099900e+03,2654
 , , , , , , ,3.103800e+03,2696
 , , , , , , ,3.107600e+03,2762
 , , , , , , ,3.111500e+03,2821
 , , , , , , ,3.115300e+03,2827
 , , , , , , ,3.119100e+03,2793
 , , , , , , ,3.122900e+03,2749
 , , , , , , ,3.126800e+03,2751
 , , , , , , ,3.130600e+03,2698
 , , , , , , ,3.134400e+03,2755
 , , , , , , ,3.138200e+03,2736
 , , , , , , ,3.142100e+03,2834
 , , , , , , ,3.145900e+03,2846
 , , , , , , ,3.149700e+03,3025
 , , , , , , ,3.153500e+03,3068
 , , , , , , ,3.157300e+03,3080
 , , , , , , ,3.161100e+03,3113
 , , , , , , ,3.164900e+03,3093
 , , , , , , ,3.168700e+03,3184
 , , , , , , ,3.172500e+03,3329
 , , , , , , ,3.176300e+03,3348
 , , , , , , ,3.180100e+03,3453
 , , , , , , ,3.183800e+03,3447
 , , , , , , ,3.187600e+03,3623
 , , , , , , ,3.191400e+03,3504
 , , , , , , ,3.195200e+03,3458
 , , , , , , ,3199,3702
 , , , , , , ,3.202700e+03,3789
 , , , , , , ,3.206500e+03,4018
 , , , , , , ,3.210300e+03,3782
 , , , , , , ,3214,4098
 , , , , , , ,3.217800e+03,4115
 , , , , , , ,3.221600e+03,4259
 , , , , , , ,3.225300e+03,4380
 , , , , , , ,3.229100e+03,4398
 , , , , , , ,3.232800e+03,4480
 , , , , , , ,3.236600e+03,4847
 , , , , , , ,3.240300e+03,4815
 , , , , , , ,3.244100e+03,4914
 , , , , , , ,3.247800e+03,4946
 , , , , , , ,3.251500e+03,4868
 , , , , , , ,3.255300e+03,4910
 , , , , , , ,3259,5080
 , , , , , , ,3.262700e+03,4776
 , , , , , , ,3.266500e+03,4664
 , , , , , , ,3.270200e+03,4760
 , , , , , , ,3.273900e+03,4731
 , , , , , , ,3.277600e+03,4792
 , , , , , , ,3.281300e+03,4720
 , , , , , , ,3.285100e+03,4685
 , , , , , , ,3.288800e+03,4694
 , , , , , , ,3.292500e+03,4889
 , , , , , , ,3.296200e+03,4933
 , , , , , , ,3.299900e+03,4840
 , , , , , , ,3.303600e+03,4839
 , , , , , , ,3.307300e+03,5149
 , , , , , , ,3311,5018
 , , , , , , ,3.314700e+03,5247
 , , , , , , ,3.318400e+03,5199
 , , , , , , ,3.322100e+03,5085
 , , , , , , ,3.325800e+03,5239
 , , , , , , ,3.329400e+03,5255
 , , , , , , ,3.333100e+03,5368
 , , , , , , ,3.336800e+03,5346
 , , , , , , ,3.340500e+03,5513
 , , , , , , ,3.344200e+03,5435
 , , , , , , ,3.347800e+03,5503
 , , , , , , ,3.351500e+03,5545
 , , , , , , ,3.355200e+03,5566
 , , , , , , ,3.358800e+03,5770
 , , , , , , ,3.362500e+03,5759
 , , , , , , ,3.366100e+03,5810
 , , , , , , ,3.369800e+03,5732
 , , , , , , ,3.373500e+03,6015
 , , , , , , ,3.377100e+03,5945
 , , , , , , ,3.380800e+03,6135
 , , , , , , ,3.384400e+03,6097
 , , , , , , ,3388,6285
 , , , , , , ,3.391700e+03,6322
 , , , , , , ,3.395300e+03,6419
 , , , , , , ,3399,6306
 , , , , , , ,3.402600e+03,6442
 , , , , , , ,3.406200e+03,6538
 , , , , , , ,3.409900e+03,6552
 , , , , , , ,3.413500e+03,6536
 , , , , , , ,3.417100e+03,6523
 , , , , , , ,3.420700e+03,6835
 , , , , , , ,3.424300e+03,6619
 , , , , , , ,3428,6556
 , , , , , , ,3.431600e+03,6633
 , , , , , , ,3.435200e+03,6622
 , , , , , , ,3.438800e+03,6721
 , , , , , , ,3.442400e+03,6860
 , , , , , , ,3446,6723
 , , , , , , ,3.449600e+03,6633
 , , , , , , ,3.453200e+03,6770
 , , , , , , ,3.456800e+03,6594
 , , , , , , ,3.460400e+03,6829
 , , , , , , ,3464,6721
 , , , , , , ,3.467600e+03,6542
 , , , , , , ,3.471200e+03,6742
 , , , , , , ,3.474700e+03,6778
 , , , , , , ,3.478300e+03,6710
 , , , , , , ,3.481900e+03,6626
 , , , , , , ,3.485500e+03,6639
 , , , , , , ,3.489100e+03,6658
 , , , , , , ,3.492600e+03,6556
 , , , , , , ,3.496200e+03,6468
 , , , , , , ,3.499800e+03,6514
 , , , , , , ,3.503300e+03,6582
 , , , , , , ,3.506900e+03,6362
 , , , , , , ,3.510500e+03,6278
 , , , , , , ,3514,6354
 , , , , , , ,3.517600e+03,6356
 , , , , , , ,3.521100e+03,6335
 , , , , , , ,3.524700e+03,6211
 , , , , , , ,3.528200e+03,6236
 , , , , , , ,3.531800e+03,5979
 , , , , , , ,3.535300e+03,5893
 , , , , , , ,3.538800e+03,5943
 , , , , , , ,3.542400e+03,5688
 , , , , , , ,3.545900e+03,5853
 , , , , , , ,3.549400e+03,6000
 , , , , , , ,3553,5591
 , , , , , , ,3.556500e+03,5560
 , , , , , , ,3560,5524
 , , , , , , ,3.563500e+03,5418
 , , , , , , ,3.567100e+03,5260
 , , , , , , ,3.570600e+03,5268
 , , , , , , ,3.574100e+03,5260
 , , , , , , ,3.577600e+03,5249
 , , , , , , ,3.581100e+03,5039
 , , , , , , ,3.584600e+03,5029
 , , , , , , ,3.588100e+03,5045
 , , , , , , ,3.591600e+03,5106
 , , , , , , ,3.595100e+03,4824
 , , , , , , ,3.598600e+03,4699
 , , , , , , ,3.602100e+03,4603
 , , , , , , ,3.605600e+03,4722
 , , , , , , ,3.609100e+03,4576
 , , , , , , ,3.612600e+03,4402
 , , , , , , ,3.616100e+03,4433
 , , , , , , ,3.619600e+03,4278
 , , , , , , ,3.623100e+03,4236
 , , , , , , ,3.626500e+03,4090
 , , , , , , ,3630,4185
 , , , , , , ,3.633500e+03,4053
 , , , , , , ,3637,3977
 , , , , , , ,3.640400e+03,3890
 , , , , , , ,3.643900e+03,3894
 , , , , , , ,3.647400e+03,3559
 , , , , , , ,3.650800e+03,3672
 , , , , , , ,3.654300e+03,3561
 , , , , , , ,3.657700e+03,3365
 , , , , , , ,3.661200e+03,3653
 , , , , , , ,3.664700e+03,3108
 , , , , , , ,3.668100e+03,3158
 , , , , , , ,3.671500e+03,3031
 , , , , , , ,3675,3021
 , , , , , , ,3.678400e+03,3116
 , , , , , , ,3.681900e+03,3013
 , , , , , , ,3.685300e+03,2766
 , , , , , , ,3.688800e+03,2869
 , , , , , , ,3.692200e+03,2622
 , , , , , , ,3.695600e+03,2747
 , , , , , , ,3699,2804
 , , , , , , ,3.702500e+03,2612
 , , , , , , ,3.705900e+03,2605
 , , , , , , ,3.709300e+03,2716
 , , , , , , ,3.712700e+03,2481
 , , , , , , ,3.716200e+03,2503
 , , , , , , ,3.719600e+03,2441
 , , , , , , ,3723,2359
 , , , , , , ,3.726400e+03,2412
 , , , , , , ,3.729800e+03,2229
 , , , , , , ,3.733200e+03,2365
 , , , , , , ,3.736600e+03,2373
 , , , , , , ,3740,2380
 , , , , , , ,3.743400e+03,2212
 , , , , , , ,3.746800e+03,2201
 , , , , , , ,3.750200e+03,2306
 , , , , , , ,3.753600e+03,2375
 , , , , , , ,3757,2307
 , , , , , , ,3.760400e+03,2302
 , , , , , , ,3.763800e+03,2252
 , , , , , , ,3.767100e+03,2273
 , , , , , , ,3.770500e+03,2456
 , , , , , , ,3.773900e+03,2161
 , , , , , , ,3.777300e+03,2378
 , , , , , , ,3.780600e+03,2146
 , , , , , , ,3784,2163
 , , , , , , ,3.787400e+03,2313
 , , , , , , ,3.790800e+03,2102
 , , , , , , ,3.794100e+03,2194
 , , , , , , ,3.797500e+03,2174
 , , , , , , ,3.800800e+03,2241
 , , , , , , ,3.804200e+03,2146
 , , , , , , ,3.807600e+03,2174
 , , , , , , ,3.810900e+03,2113
 , , , , , , ,3.814300e+03,1975
 , , , , , , ,3.817600e+03,2003
 , , , , , , ,3.820900e+03,2309
 , , , , , , ,3.824300e+03,1996
 , , , , , , ,3.827600e+03,2224
 , , , , , , ,3831,2156
 , , , , , , ,3.834300e+03,2079
 , , , , , , ,3.837600e+03,2258
 , , , , , , ,3841,2092
 , , , , , , ,3.844300e+03,2163
 , , , , , , ,3.847600e+03,2241
 , , , , , , ,3851,2053
 , , , , , , ,3.854300e+03,2016
 , , , , , , ,3.857600e+03,2068
 , , , , , , ,3.860900e+03,2178
 , , , , , , ,3.864200e+03,2060
 , , , , , , ,3.867500e+03,2143
 , , , , , , ,3.870900e+03,2319
 , , , , , , ,3.874200e+03,2153
 , , , , , , ,3.877500e+03,1996
 , , , , , , ,3.880800e+03,2125
 , , , , , , ,3.884100e+03,2200
 , , , , , , ,3.887400e+03,2099
 , , , , , , ,3.890700e+03,2059
 , , , , , , ,3894,2192
 , , , , , , ,3.897300e+03,2142
 , , , , , , ,3.900600e+03,2251
 , , , , , , ,3.903800e+03,2054
 , , , , , , ,3.907100e+03,2174
 , , , , , , ,3.910400e+03,2011
 , , , , , , ,3.913700e+03,2180
 , , , , , , ,3917,2062
 , , , , , , ,3.920300e+03,2176
 , , , , , , ,3.923500e+03,2078
 , , , , , , ,3.926800e+03,2092
 , , , , , , ,3.930100e+03,2079
 , , , , , , ,3.933300e+03,2101
 , , , , , , ,3.936600e+03,2151
 , , , , , , ,3.939900e+03,2118
 , , , , , , ,3.943100e+03,2264
 , , , , , , ,3.946400e+03,2181
 , , , , , , ,3.949700e+03,2055
 , , , , , , ,3.952900e+03,2262
 , , , , , , ,3.956200e+03,2134
 , , , , , , ,3.959400e+03,2064
 , , , , , , ,3.962700e+03,2077
 , , , , , , ,3.965900e+03,2256
 , , , , , , ,3.969200e+03,2102
 , , , , , , ,3.972400e+03,2135
 , , , , , , ,3.975600e+03,2332
 , , , , , , ,3.978900e+03,2119
 , , , , , , ,3.982100e+03,2237
 , , , , , , ,3.985300e+03,2155
 , , , , , , ,3.988600e+03,2227
 , , , , , , ,3.991800e+03,2119
 , , , , , , ,3995,2138
 , , , , , , ,3.998300e+03,2205
 , , , , , , ,4.001500e+03,2104
 , , , , , , ,4.004700e+03,2237
 , , , , , , ,4.007900e+03,2142
 , , , , , , ,4.011100e+03,2079
 , , , , , , ,4.014300e+03,2089
 , , , , , , ,4.017600e+03,2161
 , , , , , , ,4.020800e+03,2209
 , , , , , , ,4024,2291
 , , , , , , ,4.027200e+03,2237
 , , , , , , ,4.030400e+03,2309
 , , , , , , ,4.033600e+03,2207
 , , , , , , ,4.036800e+03,2172
 , , , , , , ,4040,2171
 , , , , , , ,4.043200e+03,2177
 , , , , , , ,4.046400e+03,2102
 , , , , , , ,4.049500e+03,2159
 , , , , , , ,4.052700e+03,2127
 , , , , , , ,4.055900e+03,2098
 , , , , , , ,4.059100e+03,2112
 , , , , , , ,4.062300e+03,2169
 , , , , , , ,4.065500e+03,2123
 , , , , , , ,4.068600e+03,2172
 , , , , , , ,4.071800e+03,2213
 , , , , , , ,4075,2178
 , , , , , , ,4.078200e+03,2112
 , , , , , , ,4.081300e+03,2190
 , , , , , , ,4.084500e+03,2060
 , , , , , , ,4.087600e+03,2017
 , , , , , , ,4.090800e+03,2172
 , , , , , , ,4094,2151
 , , , , , , ,4.097100e+03,2150
 , , , , , , ,4.100300e+03,2206
 , , , , , , ,4.103400e+03,1965
 , , , , , , ,4.106600e+03,2126
 , , , , , , ,4.109700e+03,2123
 , , , , , , ,4.112900e+03,2137
 , , , , , , ,4116,2190
 , , , , , , ,4.119200e+03,2233
 , , , , , , ,4.122300e+03,2074
 , , , , , , ,4.125400e+03,2123
 , , , , , , ,4.128600e+03,2152
 , , , , , , ,4.131700e+03,2041
 , , , , , , ,4.134800e+03,2227
 , , , , , , ,4138,2228
 , , , , , , ,4.141100e+03,2201
 , , , , , , ,4.144200e+03,2157
 , , , , , , ,4.147300e+03,2190
 , , , , , , ,4.150500e+03,2254
 , , , , , , ,4.153600e+03,2203
 , , , , , , ,4.156700e+03,2163
 , , , , , , ,4.159800e+03,2102
 , , , , , , ,4.162900e+03,2199
 , , , , , , ,4166,2142
 , , , , , , ,4.169100e+03,2165
 , , , , , , ,4.172300e+03,2175
 , , , , , , ,4.175400e+03,2173
 , , , , , , ,4.178500e+03,2165
 , , , , , , ,4.181600e+03,2323
 , , , , , , ,4.184700e+03,2157
 , , , , , , ,4.187700e+03,2169
 , , , , , , ,4.190800e+03,2376
 , , , , , , ,4.193900e+03,2260
 , , , , , , ,4197,2283
 , , , , , , ,4.200100e+03,2329
 , , , , , , ,4.203200e+03,2330
 , , , , , , ,4.206300e+03,2353
 , , , , , , ,4.209400e+03,2254
 , , , , , , ,4.212400e+03,2187
 , , , , , , ,4.215500e+03,2281
 , , , , , , ,4.218600e+03,2315
 , , , , , , ,4.221700e+03,2359
 , , , , , , ,4.224700e+03,2376
 , , , , , , ,4.227800e+03,2345
 , , , , , , ,4.230900e+03,2262
 , , , , , , ,4.233900e+03,2329
 , , , , , , ,4237,2598
 , , , , , , ,4240,2359
 , , , , , , ,4.243100e+03,2443
 , , , , , , ,4.246200e+03,2430
 , , , , , , ,4.249200e+03,2544
 , , , , , , ,4.252300e+03,2600
 , , , , , , ,4.255300e+03,2616
 , , , , , , ,4.258400e+03,2794
 , , , , , , ,4.261400e+03,2625
 , , , , , , ,4.264400e+03,2555
 , , , , , , ,4.267500e+03,2796
 , , , , , , ,4.270500e+03,2757
 , , , , , , ,4.273600e+03,2669
 , , , , , , ,4.276600e+03,2735
 , , , , , , ,4.279600e+03,2722
 , , , , , , ,4.282700e+03,2723
 , , , , , , ,4.285700e+03,2911
 , , , , , , ,4.288700e+03,2877
 , , , , , , ,4.291700e+03,2793
 , , , , , , ,4.294800e+03,2721
 , , , , , , ,4.297800e+03,2732
 , , , , , , ,4.300800e+03,2687
 , , , , , , ,4.303800e+03,2655
 , , , , , , ,4.306800e+03,2572
 , , , , , , ,4.309800e+03,2692
 , , , , , , ,4.312900e+03,2602
 , , , , , , ,4.315900e+03,2532
 , , , , , , ,4.318900e+03,2504
 , , , , , , ,4.321900e+03,2462
 , , , , , , ,4.324900e+03,2507
 , , , , , , ,4.327900e+03,2376
 , , , , , , ,4.330900e+03,2498
 , , , , , , ,4.333900e+03,2420
 , , , , , , ,4.336900e+03,2245
 , , , , , , ,4.339900e+03,2355
 , , , , , , ,4.342800e+03,2174
 , , , , , , ,4.345800e+03,2178
 , , , , , , ,4.348800e+03,2226
 , , , , , , ,4.351800e+03,2192
 , , , , , , ,4.354800e+03,2086
 , , , , , , ,4.357800e+03,2094
 , , , , , , ,4.360700e+03,2304
 , , , , , , ,4.363700e+03,2235
 , , , , , , ,4.366700e+03,2300
 , , , , , , ,4.369700e+03,2140
 , , , , , , ,4.372600e+03,2229
 , , , , , , ,4.375600e+03,2028
 , , , , , , ,4.378600e+03,2178
 , , , , , , ,4.381500e+03,2011
 , , , , , , ,4.384500e+03,2192
 , , , , , , ,4.387400e+03,2019
 , , , , , , ,4.390400e+03,1991
 , , , , , , ,4.393400e+03,2057
 , , , , , , ,4.396300e+03,2133
 , , , , , , ,4.399300e+03,2233
 , , , , , , ,4.402200e+03,2014
 , , , , , , ,4.405200e+03,2154
 , , , , , , ,4.408100e+03,2149
 , , , , , , ,4.411100e+03,2138
 , , , , , , ,4414,2150
 , , , , , , ,4.416900e+03,2201
 , , , , , , ,4.419900e+03,1973
 , , , , , , ,4.422800e+03,2098
 , , , , , , ,4.425700e+03,2060
 , , , , , , ,4.428700e+03,2049
 , , , , , , ,4.431600e+03,2020
 , , , , , , ,4.434500e+03,2043
 , , , , , , ,4.437500e+03,2091
 , , , , , , ,4.440400e+03,2142
 , , , , , , ,4.443300e+03,2046
 , , , , , , ,4.446200e+03,1995
 , , , , , , ,4.449100e+03,1958
 , , , , , , ,4452,2087
