Wavenumber, Raw Data , Baseline Subtracted, Baseline , Fine Filter , Thresholded 
cm-1, counts, counts, counts, counts, counts
Data from RamanShift Node
Date: Wed Dec 04 15:41:18 GMT 2013
User: Ion2
Spectrometer: V532-0003
Autoset integration time: false
Trigger mode: 0
Integration Time (sec): 2.000000E1
Scans to average: 1
Nonlinearity correction enabled: false
Boxcar width: 0
Stray light correction enabled: false
XAxis mode: Wavelengths
Storing dark spectrum: false
Number of Pixels in Spectrum: 1024
>>>>>Begin Spectral Data<<<<<
9.963100e+02,2981,3.962102e+02,2.584790e+03,4.716033e+02,-1.269463e+01,2.172586e+00,9.477600e+01,384,Location of 2D,2.685993e+03
1.001700e+03,2880,3.217583e+02,2.558242e+03,4.467860e+02,-3.447003e+01,2.202463e+00,1.008400e+02,569,Scale of 2D,1.750409e+01
1007,2833,3.006314e+02,2.532369e+03,4.397438e+02,-1.546387e+01,2.232554e+00,1.068900e+02,456,Area of 2D,4.116621e+05
1.012400e+03,2572,6.575730e+01,2.506243e+03,1.750872e+02,5.285346e+00,2.263966e+00,1.129400e+02,420,Height of 2D,7.486030e+03
1.017800e+03,2656,1.756464e+02,2.480354e+03,1.329105e+02,5.526374e+00,2.296166e+00,1.189800e+02,487,Location of G,1.592141e+03
1.023100e+03,2407,-4.817337e+01,2.455173e+03,9.215526e+01,1.446918e+01,2.328562e+00,1.250300e+02,362,Scale of G,1.273599e+01
1.028400e+03,2444,1.378038e+01,2.430220e+03,7.023686e+01,1.556059e+01,2.361773e+00,1.310600e+02,431,Area of G,1.169701e+05
1.033800e+03,2506,1.009729e+02,2.405027e+03,9.245012e+01,1.394806e+01,2.396479e+00,1.370900e+02,514,Height of G,2.923426e+03
1.039100e+03,2417,3.647184e+01,2.380528e+03,7.893994e+01,6.283933e+00,2.431427e+00,1.431200e+02,533,Location of D,0
1.044500e+03,2503,1.472026e+02,2.355797e+03,1.043474e+02,3.699138e+00,2.467968e+00,1.491400e+02,449,Scale of D,0
1.049800e+03,2553,2.212501e+02,2.331750e+03,1.354502e+02,6.722060e-01,2.504785e+00,1.551600e+02,401,Area of D,0
1.055100e+03,2389,8.107514e+01,2.307925e+03,1.664053e+02,-2.100097e+00,2.542581e+00,1.611700e+02,451,Height of D,0
1.060400e+03,2414,1.296785e+02,2.284321e+03,2.194233e+02,-4.443374e+00,2.581394e+00,1.671800e+02,449,Location of D+Dpp,2.465116e+03
1.065800e+03,2492,2.315002e+02,2.260500e+03,2.470113e+02,-6.998969e+00,2.622026e+00,1.731800e+02,398,Scale of D+Dpp,1.625648e+01
1.071100e+03,2555,3.176586e+02,2.237341e+03,2.452358e+02,-6.783120e+00,2.663014e+00,1.791800e+02,490,Area of D+Dpp,1.425830e+04
1.076400e+03,2622,4.075978e+02,2.214402e+03,2.592406e+02,-6.416733e+00,2.705145e+00,1.851700e+02,499,Height of D+Dpp,2.791845e+02
1.081700e+03,2532,3.403187e+02,2.191681e+03,2.673120e+02,-5.633430e+00,2.748465e+00,1.911600e+02,498,Location of Dp,0
1087,2378,2.088219e+02,2.169178e+03,2.862454e+02,-4.814024e+00,2.793021e+00,1.971400e+02,457,Scale of Dp,0
1.092300e+03,2326,1.791083e+02,2.146892e+03,2.696763e+02,-3.657723e+00,2.838865e+00,2.031200e+02,457,Area of Dp,0
1.097600e+03,2311,1.861787e+02,2.124821e+03,2.166909e+02,-1.785382e+00,2.886050e+00,2.091000e+02,447,Height of Dp,0
1.102900e+03,2467,3.640340e+02,2.102966e+03,1.823480e+02,-1.533468e+00,2.934632e+00,2.150700e+02,460,Location of D+Dp,0
1.108200e+03,2283,2.016749e+02,2.081325e+03,1.707913e+02,-1.195779e+00,2.984673e+00,2.210300e+02,520,Scale of D+Dp,0
1.113400e+03,2097,3.669987e+01,2.060300e+03,1.854502e+02,-7.593418e-01,3.035245e+00,2.269900e+02,295,Area of D+Dp,0
1.118700e+03,2139,9.991840e+01,2.039082e+03,1.734130e+02,-1.189123e+00,3.088361e+00,2.329500e+02,348,Height of D+Dp,0
1124,2146,1.279249e+02,2.018075e+03,1.150222e+02,-1.638456e+00,3.143132e+00,2.389000e+02,456,Ratio of G to 2D,2.560704e+00
1.129300e+03,2279,2.817203e+02,1.997280e+03,7.699275e+01,-1.279610e+00,3.199632e+00,2.448500e+02,390,Scale of D to G,0
1.134500e+03,2079,1.019188e+02,1.977081e+03,7.975800e+01,-2.621297e+00,3.256822e+00,2.507900e+02,358,Ratio of D to 2D,0
1.139800e+03,1912,-4.470182e+01,1.956702e+03,5.488621e+01,-8.037240e-01,3.316983e+00,2.567300e+02,544,No Layers,3
1.145100e+03,1872,-6.453126e+01,1.936531e+03,3.504004e+01,-1.958651e-01,3.379120e+00,2.626600e+02,405,Date of Analysis,240618
1.150300e+03,1973,5.605659e+01,1.916943e+03,-1.235004e+01,-8.502566e-01,3.442094e+00,2.685900e+02,399
1.155600e+03,1823,-7.418411e+01,1.897184e+03,-6.088987e+01,-9.116849e-01,3.508425e+00,2.745100e+02,327
1.160800e+03,1867,-1.099822e+01,1.877998e+03,-7.925666e+01,3.726642e-01,3.575710e+00,2.804300e+02,333
1166,1809,-5.001025e+01,1.859010e+03,-9.525541e+01,-2.612962e-01,3.645284e+00,2.863400e+02,405
1.171300e+03,1602,-2.378600e+02,1.839860e+03,-1.477387e+02,9.194427e-01,3.718667e+00,2.922500e+02,521
1.176500e+03,1648,-1.732694e+02,1.821269e+03,-1.710443e+02,1.245904e-01,3.793210e+00,2.981600e+02,525
1.181800e+03,1626,-1.765225e+02,1.802523e+03,-2.061181e+02,-1.624923e-01,3.871910e+00,3.040600e+02,493
1187,1473,-3.113261e+02,1.784326e+03,-2.363879e+02,2.658685e-01,3.951934e+00,3.099600e+02,337
1.192200e+03,1529,-2.373238e+02,1.766324e+03,-2.650470e+02,1.231730e+00,4.034883e+00,3.158500e+02,393
1.197400e+03,1492,-2.565148e+02,1.748515e+03,-2.937101e+02,1.566314e+00,4.120909e+00,3.217400e+02,469
1.202600e+03,1469,-2.618985e+02,1.730898e+03,-3.303313e+02,2.823281e+00,4.210173e+00,3.276200e+02,584
1.207800e+03,1275,-4.384739e+02,1.713474e+03,-3.567163e+02,4.141559e+00,4.302850e+00,3.335000e+02,495
1.213100e+03,1322,-3.739108e+02,1.695911e+03,-3.907215e+02,5.431279e+00,4.401011e+00,3.393700e+02,603
1.218300e+03,1246,-4.328713e+02,1.678871e+03,-4.159625e+02,5.783340e+00,4.501154e+00,3.452400e+02,546
1.223500e+03,1166,-4.960213e+02,1.662021e+03,-4.415359e+02,5.696103e+00,4.605306e+00,3.511000e+02,773
1.228700e+03,1170,-4.753600e+02,1.645360e+03,-4.570124e+02,5.382924e+00,4.713696e+00,3.569600e+02,1143
1.233800e+03,1196,-4.332018e+02,1.629202e+03,-4.478668e+02,3.558016e+00,4.824352e+00,3.628200e+02,1366
1239,1172,-4.409122e+02,1.612912e+03,-4.511937e+02,2.217663e+00,4.941870e+00,3.686700e+02,1695
1.244200e+03,1050,-5.468091e+02,1.596809e+03,-4.216061e+02,5.413401e-01,5.064405e+00,3.745100e+02,2296
1.249400e+03,1271,-3.098918e+02,1.580892e+03,-4.057748e+02,-4.766714e-01,5.192260e+00,3.803500e+02,2642
1.254600e+03,1109,-4.561594e+02,1.565159e+03,-4.055109e+02,-8.521741e-01,5.325759e+00,3.861900e+02,3223
1.259700e+03,1261,-2.889086e+02,1.549909e+03,-3.963290e+02,-9.940151e-01,5.462512e+00,3.920200e+02,3662
1.264900e+03,1170,-3.645405e+02,1.534540e+03,-3.894723e+02,-5.398702e-01,5.608254e+00,3.978500e+02,4130
1.270100e+03,1088,-4.313550e+02,1.519355e+03,-3.882260e+02,4.915069e-01,5.760771e+00,4.036800e+02,4380
1.275200e+03,1128,-3.766384e+02,1.504638e+03,-3.886287e+02,1.936380e+00,5.917362e+00,4.094900e+02,4484
1.280400e+03,991,-4.988127e+02,1.489813e+03,-3.922077e+02,2.278532e+00,6.084639e+00,4.153100e+02,4338
1.285600e+03,1174,-3.011674e+02,1.475167e+03,-3.772513e+02,2.903022e+00,6.260122e+00,4.211200e+02,4747
1.290700e+03,1002,-4.589783e+02,1.460978e+03,-3.677970e+02,3.921602e+00,6.440745e+00,4.269200e+02,4782
1.295800e+03,1133,-3.139614e+02,1.446961e+03,-3.714787e+02,5.477838e+00,6.630383e+00,4.327300e+02,4564
1301,1173,-2.598462e+02,1.432846e+03,-3.458028e+02,5.156450e+00,6.833672e+00,4.385200e+02,4684
1.306100e+03,1054,-3.651748e+02,1.419175e+03,-3.416248e+02,5.569878e+00,7.043493e+00,4.443100e+02,4739
1.311300e+03,1003,-4.024103e+02,1.405410e+03,-2.923320e+02,4.278184e+00,7.268853e+00,4.501000e+02,4765
1.316400e+03,1073,-3.190814e+02,1.392081e+03,-2.747451e+02,3.195496e+00,7.501920e+00,4.558900e+02,4851
1.321500e+03,1107,-2.719211e+02,1.378921e+03,-2.507953e+02,-1.124894e-01,7.747812e+00,4.616600e+02,4821
1.326600e+03,1252,-1.139286e+02,1.365929e+03,-1.868715e+02,-3.740015e+00,8.007514e+00,4.674400e+02,4796
1.331800e+03,1162,-1.908534e+02,1.352853e+03,-1.331532e+02,-6.205234e+00,8.287649e+00,4.732100e+02,4774
1.336900e+03,1248,-9.219768e+01,1.340198e+03,-6.903036e+01,-7.392891e+00,8.578651e+00,4.789700e+02,4910
1342,1410,8.229239e+01,1.327708e+03,-2.921651e+01,-9.227477e+00,8.887072e+00,4.847300e+02,4786
1.347100e+03,1289,-2.638248e+01,1.315382e+03,-1.613951e+01,-8.055015e+00,9.214363e+00,4.904900e+02,4754
1.352200e+03,1433,1.297784e+02,1.303222e+03,1.802282e+01,-7.364007e+00,9.562128e+00,4.962400e+02,4615
1.357300e+03,1298,6.775811e+00,1.291224e+03,-1.640693e+01,-3.395634e+00,9.932150e+00,5.019900e+02,4654
1.362400e+03,1257,-2.238960e+01,1.279390e+03,-4.099948e+01,-2.076695e-01,1.032641e+01,5.077300e+02,4459
1.367500e+03,1316,4.828290e+01,1.267717e+03,-3.792810e+01,8.555545e-01,1.074710e+01,5.134700e+02,4417
1.372600e+03,923,-3.332060e+02,1.256206e+03,-5.158907e+01,1.930219e+00,1.119670e+01,5.192100e+02,4303
1.377700e+03,1155,-8.985547e+01,1.244855e+03,-5.941025e+01,4.229191e+00,1.167795e+01,5.249400e+02,4081
1.382700e+03,1229,-4.882807e+00,1.233883e+03,-6.367663e+01,1.943722e+00,1.218349e+01,5.306600e+02,3904
1.387800e+03,1257,3.415164e+01,1.222848e+03,-9.384545e+01,3.370960e+00,1.273694e+01,5.363800e+02,3923
1.392900e+03,1164,-4.797243e+01,1.211972e+03,-4.002904e+01,1.673202e+00,1.333246e+01,5.421000e+02,3670
1398,1149,-5.225430e+01,1.201254e+03,-3.082662e+01,1.103675e+00,1.397450e+01,5.478100e+02,3704
1403,1028,-1.628988e+02,1.190899e+03,-3.817742e+01,6.352852e-01,1.465396e+01,5.535200e+02,3536
1.408100e+03,1224,4.350891e+01,1.180491e+03,-3.156852e+01,4.608428e-02,1.540366e+01,5.592200e+02,3410
1.413100e+03,1145,-2.543856e+01,1.170439e+03,-2.325685e+01,-2.565924e+00,1.620046e+01,5.649200e+02,3268
1.418200e+03,1104,-5.633841e+01,1.160338e+03,-1.926849e+01,-8.620452e-01,1.708360e+01,5.706200e+02,3076
1.423200e+03,1231,8.041394e+01,1.150586e+03,3.431101e+01,-3.246304e+00,1.802671e+01,5.763100e+02,2989
1.428300e+03,1151,1.020931e+01,1.140791e+03,1.828372e+01,-2.424086e+00,1.907730e+01,5.819900e+02,2920
1.433300e+03,1107,-2.433577e+01,1.131336e+03,2.782255e+01,-2.663982e+00,2.020523e+01,5.876800e+02,3057
1.438400e+03,1334,2.121576e+02,1.121842e+03,2.021095e+01,-1.744639e+00,2.146883e+01,5.933500e+02,2774
1.443400e+03,1044,-6.868213e+01,1.112682e+03,1.445257e+01,-1.417985e+00,2.283361e+01,5.990300e+02,2656
1.448400e+03,1145,4.133326e+01,1.103667e+03,1.509228e+01,9.681088e-01,2.434063e+01,6.046900e+02,2657
1.453500e+03,985,-1.096196e+02,1.094620e+03,8.872689e+00,1.799661e-02,2.604568e+01,6.103600e+02,2641
1.458500e+03,1126,4.010525e+01,1.085895e+03,-2.066047e+01,1.006820e+00,2.790676e+01,6.160200e+02,2547
1.463500e+03,1092,1.468726e+01,1.077313e+03,-8.170912e+00,-1.274928e-01,2.998485e+01,6.216700e+02,2430
1.468500e+03,1001,-6.787288e+01,1.068873e+03,-1.939574e+01,-4.653440e-03,3.231515e+01,6.273300e+02,2440
1.473500e+03,1066,5.425498e+00,1.060575e+03,-2.502275e+00,-9.471703e-01,3.494023e+01,6.329700e+02,2374
1.478600e+03,1071,1.874480e+01,1.052255e+03,-7.035719e+00,-1.106004e+00,3.797541e+01,6.386200e+02,2382
1.483600e+03,1007,-3.724054e+01,1.044241e+03,-5.995396e+00,-1.816547e+00,4.136669e+01,6.442500e+02,2440
1.488600e+03,1045,8.634686e+00,1.036365e+03,-1.695206e+01,-3.053406e-01,4.524942e+01,6.498900e+02,2266
1.493600e+03,1037,8.371147e+00,1.028629e+03,-3.264005e+01,9.453081e-01,4.972314e+01,6.555200e+02,2249
1.498600e+03,1043,2.196952e+01,1.021030e+03,-3.534639e+01,2.212212e+00,5.491373e+01,6.611400e+02,2282
1.503600e+03,869,-1.445695e+02,1.013570e+03,-4.104690e+01,3.340328e+00,6.098224e+01,6.667600e+02,2298
1.508500e+03,902,-1.043904e+02,1.006390e+03,-5.674091e+01,5.774607e+00,6.798179e+01,6.723800e+02,2098
1.513500e+03,999,-1.995749e-01,9.991996e+02,-7.157060e+01,6.474179e+00,7.646647e+01,6.779900e+02,2119
1.518500e+03,915,-7.714411e+01,9.921441e+02,-8.155412e+01,7.647150e+00,8.666758e+01,6.836000e+02,2083
1.523500e+03,884,-1.012234e+02,9.852234e+02,-5.481446e+01,9.521036e+00,9.907598e+01,6.892000e+02,2079
1.528500e+03,883,-9.543668e+01,9.784367e+02,-2.120543e+01,1.377905e+01,1.143686e+02,6.948000e+02,2180
1.533400e+03,924,-4.791514e+01,9.719151e+02,-1.215759e+01,2.009833e+01,1.330701e+02,7.004000e+02,2171
1.538400e+03,1008,4.260811e+01,9.653919e+02,1.132970e+01,2.715597e+01,1.572876e+02,7.059900e+02,2000
1.543300e+03,1090,1.308728e+02,9.591272e+02,6.981160e+01,3.317315e+01,1.879760e+02,7.115800e+02,2252
1.548300e+03,1016,6.313524e+01,9.528648e+02,1.171633e+02,3.895365e+01,2.293776e+02,7.171600e+02,2127
1.553300e+03,1034,8.726699e+01,9.467330e+02,1.975308e+02,3.730922e+01,2.856890e+02,7.227400e+02,2222
1.558200e+03,1249,3.081499e+02,9.408501e+02,3.016106e+02,2.791881e+01,3.627241e+02,7.283100e+02,1931
1.563200e+03,1171,2.360249e+02,9.349751e+02,5.134378e+02,9.103438e+00,4.762153e+02,7.338800e+02,2091
1.568100e+03,1444,5.146574e+02,9.293426e+02,8.178365e+02,-1.557363e+01,6.425934e+02,7.394500e+02,2193
1573,1695,7.711670e+02,9.238330e+02,1.150522e+03,-4.237224e+01,8.990716e+02,7.450100e+02,2330
1578,2532,1.613663e+03,9.183370e+02,1.509957e+03,-6.693904e+01,1.311300e+03,7.505700e+02,2234
1.582900e+03,3107,2.193926e+03,9.130739e+02,1.836966e+03,-8.506098e+01,1.917182e+03,7.561200e+02,2182
1.587800e+03,3324,2.416068e+03,9.079319e+02,2.037997e+03,-8.823101e+01,2.621183e+03,7.616700e+02,2287
1.592800e+03,3727,2.824191e+03,9.028090e+02,2.108763e+03,-7.917299e+01,2.917628e+03,7.672100e+02,2288
1.597700e+03,3423,2.525090e+03,8.979096e+02,1.971251e+03,-5.916807e+01,2.457588e+03,7.727500e+02,2407
1.602600e+03,2815,1.921871e+03,8.931293e+02,1.712905e+03,-3.227254e+01,1.747969e+03,7.782900e+02,2559
1.607500e+03,2155,1.266533e+03,8.884675e+02,1.387297e+03,-4.365259e+00,1.193176e+03,7.838200e+02,2488
1.612400e+03,1535,6.510764e+02,8.839236e+02,1.007556e+03,1.884419e+01,8.301699e+02,7.893500e+02,2644
1.617300e+03,1265,3.855031e+02,8.794969e+02,6.669842e+02,3.553526e+01,5.984353e+02,7.948700e+02,2636
1.622200e+03,1012,1.368132e+02,8.751868e+02,4.077242e+02,4.198505e+01,4.470634e+02,8.003900e+02,2623
1.627100e+03,1037,1.660074e+02,8.709926e+02,2.327768e+02,4.154072e+01,3.446881e+02,8.059000e+02,2610
1632,1008,1.410862e+02,8.669138e+02,1.371426e+02,3.546783e+01,2.729891e+02,8.114100e+02,2614
1.636900e+03,970,1.070504e+02,8.629496e+02,8.096512e+01,2.749276e+01,2.211581e+02,8.169200e+02,2604
1.641800e+03,901,4.190046e+01,8.590995e+02,6.453077e+01,1.787667e+01,1.826342e+02,8.224200e+02,2631
1.646700e+03,837,-1.836286e+01,8.553629e+02,3.683039e+01,1.135911e+01,1.533025e+02,8.279200e+02,2597
1.651600e+03,844,-7.738968e+00,8.517390e+02,3.473184e+01,5.874241e+00,1.304981e+02,8.334100e+02,2602
1.656500e+03,870,2.177278e+01,8.482272e+02,4.309288e+01,2.401620e+00,1.124435e+02,8.389000e+02,2667
1.661300e+03,817,-2.789527e+01,8.448953e+02,5.476251e+01,1.823716e-01,9.818774e+01,8.443900e+02,2675
1.666200e+03,968,1.263963e+02,8.416037e+02,5.575046e+01,-3.388845e-01,8.629361e+01,8.498700e+02,2731
1.671100e+03,1004,1.655777e+02,8.384223e+02,7.248594e+01,-1.934178e+00,7.647355e+01,8.553500e+02,2892
1.675900e+03,959,1.235878e+02,8.354122e+02,5.796172e+01,-6.922379e-01,6.842974e+01,8.608200e+02,2738
1.680800e+03,821,-1.144720e+01,8.324472e+02,6.976779e+01,-3.568649e-01,6.149613e+01,8.662900e+02,2943
1.685700e+03,939,1.094094e+02,8.295906e+02,6.231602e+01,-4.541842e-01,5.560051e+01,8.717600e+02,2882
1.690500e+03,747,-7.989675e+01,8.268967e+02,4.575746e+01,1.056848e+00,5.064317e+01,8.772200e+02,3063
1.695400e+03,879,5.474721e+01,8.242528e+02,5.266633e+01,2.862440e-01,4.626804e+01,8.826700e+02,3201
1.700200e+03,896,7.423397e+01,8.217660e+02,3.732045e+01,5.727360e-01,4.253918e+01,8.881300e+02,3356
1.705100e+03,869,4.966778e+01,8.193322e+02,3.772709e+01,2.799549e-01,3.920755e+01,8.935700e+02,3489
1.709900e+03,989,1.719499e+02,8.170501e+02,6.131758e+01,-3.559631e-01,3.633592e+01,8.990200e+02,3615
1.714700e+03,696,-1.188684e+02,8.148684e+02,5.994210e+01,-1.007996e+00,3.379346e+01,9.044600e+02,3759
1.719600e+03,925,1.122559e+02,8.127441e+02,4.432340e+01,1.123635e+00,3.148798e+01,9.098900e+02,3946
1.724400e+03,896,8.523667e+01,8.107633e+02,6.431714e+01,-9.573118e-01,2.947355e+01,9.153300e+02,3913
1.729200e+03,854,4.511884e+01,8.088812e+02,2.792602e+01,1.329207e+00,2.766770e+01,9.207500e+02,4121
1734,772,-3.509695e+01,8.070969e+02,6.072207e+01,1.040215e+00,2.604314e+01,9.261800e+02,4001
1.738900e+03,995,1.896240e+02,8.053760e+02,3.769983e+01,1.836833e+00,2.454787e+01,9.316000e+02,4104
1.743700e+03,721,-8.278795e+01,8.037880e+02,3.086625e+01,1.364070e+00,2.322318e+01,9.370100e+02,4010
1.748500e+03,913,1.107039e+02,8.022961e+02,4.322192e+01,1.593435e+00,2.202048e+01,9.424200e+02,3821
1.753300e+03,752,-4.889975e+01,8.008997e+02,5.891031e+01,-1.118955e-01,2.092568e+01,9.478300e+02,3683
1.758100e+03,837,3.740160e+01,7.995984e+02,5.421285e+01,8.277809e-01,1.992665e+01,9.532300e+02,3716
1.762900e+03,930,1.316086e+02,7.983914e+02,7.442102e+01,-1.053066e+00,1.901295e+01,9.586300e+02,3649
1.767700e+03,872,7.472177e+01,7.972782e+02,6.667826e+01,-1.056363e+00,1.817551e+01,9.640300e+02,3430
1.772500e+03,953,1.567418e+02,7.962582e+02,8.526881e+01,-4.636313e-01,1.740645e+01,9.694200e+02,3381
1.777300e+03,854,5.866921e+01,7.953308e+02,9.319562e+01,-9.811127e-01,1.669889e+01,9.748000e+02,3411
1.782100e+03,851,5.650465e+01,7.944954e+02,8.888785e+01,-7.313589e-01,1.604680e+01,9.801900e+02,3375
1.786800e+03,875,8.123412e+01,7.937659e+02,1.014890e+02,-7.550758e-01,1.545694e+01,9.855600e+02,3119
1.791600e+03,886,9.288927e+01,7.931107e+02,8.914138e+01,-2.440199e-01,1.489961e+01,9.909400e+02,3057
1.796400e+03,894,1.014542e+02,7.925458e+02,8.513269e+01,-1.290033e-01,1.438372e+01,9.963100e+02,2981
1.801200e+03,955,1.629295e+02,7.920705e+02,9.203492e+01,3.207420e-01,1.390560e+01,1.001700e+03,2880
1.805900e+03,862,7.030868e+01,7.916913e+02,1.147076e+02,-1.029517e+00,1.347089e+01,1007,2833
1.810700e+03,822,3.060840e+01,7.913916e+02,1.014353e+02,-4.266763e-03,1.305821e+01,1.012400e+03,2572
1.815500e+03,896,1.048203e+02,7.911797e+02,9.821882e+01,-2.035462e-01,1.267455e+01,1.017800e+03,2656
1.820200e+03,1031,2.399432e+02,7.910568e+02,8.577298e+01,-3.949795e-02,1.232476e+01,1.023100e+03,2407
1825,791,-1.697779e-02,7.910170e+02,1.059573e+02,-8.958906e-01,1.199188e+01,1.028400e+03,2444
1.829700e+03,870,7.893861e+01,7.910614e+02,1.100564e+02,7.335093e-01,1.168796e+01,1.033800e+03,2506
1.834500e+03,867,7.580867e+01,7.911913e+02,1.115006e+02,3.954960e-01,1.139840e+01,1.039100e+03,2417
1.839200e+03,1003,2.115992e+02,7.914008e+02,8.800552e+01,8.166136e-01,1.113378e+01,1.044500e+03,2503
1844,851,5.930185e+01,7.916981e+02,8.557001e+01,8.867431e-01,1.088147e+01,1.049800e+03,2553
1.848700e+03,907,1.149296e+02,7.920704e+02,1.079107e+02,2.017693e-01,1.065075e+01,1.055100e+03,2389
1.853400e+03,868,7.547768e+01,7.925223e+02,1.093143e+02,-5.567690e-01,1.043512e+01,1.060400e+03,2414
1.858200e+03,776,-1.706553e+01,7.930655e+02,9.406685e+01,-4.499471e-01,1.022944e+01,1.065800e+03,2492
1.862900e+03,1029,2.353232e+02,7.936768e+02,1.090271e+02,-2.130910e+00,1.004137e+01,1.071100e+03,2555
1.867600e+03,880,8.563391e+01,7.943661e+02,1.094776e+02,-2.864875e+00,9.865640e+00,1.076400e+03,2622
1.872300e+03,900,1.048672e+02,7.951328e+02,1.262788e+02,-2.659931e+00,9.701511e+00,1.081700e+03,2532
1877,960,1.640236e+02,7.959764e+02,1.401473e+02,-3.434608e+00,9.548289e+00,1087,2378
1.881800e+03,915,1.180834e+02,7.969166e+02,1.030821e+02,-2.082750e+00,9.402410e+00,1.092300e+03,2326
1.886500e+03,991,1.930861e+02,7.979139e+02,8.879805e+01,-9.226950e-01,9.269362e+00,1.097600e+03,2311
1.891200e+03,879,8.001372e+01,7.989863e+02,7.629574e+01,-2.076922e-01,9.145466e+00,1.102900e+03,2467
1.895900e+03,776,-2.413331e+01,8.001333e+02,7.271857e+01,1.617544e+00,9.030234e+00,1.108200e+03,2283
1.900600e+03,787,-1.435440e+01,8.013544e+02,6.378432e+01,2.663153e+00,8.923216e+00,1.113400e+03,2097
1.905300e+03,820,1.735102e+01,8.026490e+02,2.835271e+01,2.586219e+00,8.823997e+00,1.118700e+03,2139
1910,943,1.389835e+02,8.040165e+02,-5.802020e-01,3.623564e+00,8.732197e+00,1124,2146
1.914700e+03,861,5.554361e+01,8.054564e+02,1.241473e+01,2.873145e+00,8.647462e+00,1.129300e+03,2279
1.919300e+03,752,-5.493519e+01,8.069352e+02,2.019520e+01,2.037034e+00,8.571060e+00,1.134500e+03,2079
1924,686,-1.225166e+02,8.085166e+02,2.333320e+01,2.229570e+00,8.499376e+00,1.139800e+03,1912
1.928700e+03,877,6.683120e+01,8.101688e+02,3.140647e+01,2.057460e-01,8.433863e+00,1.145100e+03,1872
1.933400e+03,852,4.010889e+01,8.118911e+02,1.626716e+01,-6.588953e-01,8.374268e+00,1.150300e+03,1973
1.938100e+03,853,3.931700e+01,8.136830e+02,2.820301e+01,-9.072134e-01,8.320355e+00,1.155600e+03,1823
1.942700e+03,1011,1.954964e+02,8.155036e+02,5.764168e+01,-1.335097e+00,8.272882e+00,1.160800e+03,1867
1.947400e+03,767,-5.043154e+01,8.174315e+02,6.001228e+01,-1.807879e+00,8.229590e+00,1166,1809
1952,848,2.861578e+01,8.193842e+02,5.017929e+01,-7.051831e-01,8.192144e+00,1.171300e+03,1602
1.956700e+03,905,8.355400e+01,8.214460e+02,5.385098e+01,-1.585925e+00,8.158750e+00,1.176500e+03,1648
1.961400e+03,907,8.342542e+01,8.235746e+02,3.845788e+01,-7.115598e-01,8.130119e+00,1.181800e+03,1626
1966,797,-2.872203e+01,8.257220e+02,5.142770e+01,2.730397e-01,8.106572e+00,1187,1473
1.970700e+03,893,6.501884e+01,8.279812e+02,4.404809e+01,1.947184e+00,8.086956e+00,1.192200e+03,1529
1.975300e+03,918,8.774469e+01,8.302553e+02,4.089738e+01,1.817217e+00,8.071991e+00,1.197400e+03,1492
1980,873,4.035721e+01,8.326428e+02,2.725429e+01,2.360743e+00,8.060920e+00,1.202600e+03,1469
1.984600e+03,812,-2.304148e+01,8.350415e+02,3.254929e+01,2.067533e+00,8.054118e+00,1.207800e+03,1275
1.989200e+03,899,6.149902e+01,8.375010e+02,3.350416e+01,2.328976e+00,8.051221e+00,1.213100e+03,1322
1.993900e+03,828,-1.207620e+01,8.400762e+02,2.939837e+01,1.651884e+00,8.052216e+00,1.218300e+03,1246
1.998500e+03,851,8.342962e+00,8.426570e+02,4.423980e+01,2.563897e-01,8.056991e+00,1.223500e+03,1166
2.003100e+03,917,7.170290e+01,8.452971e+02,7.944155e+01,-1.661320e+00,8.065464e+00,1.228700e+03,1170
2.007700e+03,907,5.900415e+01,8.479959e+02,8.686996e+01,-2.472909e+00,8.077582e+00,1.233800e+03,1196
2.012300e+03,995,1.442472e+02,8.507528e+02,8.953348e+01,-2.884230e+00,8.093300e+00,1239,1172
2017,1077,2.233708e+02,8.536292e+02,9.585345e+01,-3.385343e+00,8.113034e+00,1.244200e+03,1050
2.021600e+03,970,1.134979e+02,8.565021e+02,1.078304e+02,-3.220936e+00,8.135912e+00,1.249400e+03,1271
2.026200e+03,866,6.568377e+00,8.594316e+02,1.226078e+02,-2.603964e+00,8.162287e+00,1.254600e+03,1109
2.030800e+03,915,5.258280e+01,8.624172e+02,9.918602e+01,-6.808698e-01,8.192138e+00,1.259700e+03,1261
2.035400e+03,1021,1.555417e+02,8.654583e+02,8.357453e+01,-3.128827e-01,8.225449e+00,1.264900e+03,1170
2040,1031,1.624456e+02,8.685544e+02,6.362232e+01,7.408175e-01,8.262210e+00,1.270100e+03,1088
2.044600e+03,852,-1.970503e+01,8.717050e+02,6.291170e+01,1.426905e+00,8.302419e+00,1.275200e+03,1128
2.049200e+03,989,1.140904e+02,8.749096e+02,7.057586e+01,2.092578e+00,8.346074e+00,1.280400e+03,991
2.053800e+03,852,-2.616758e+01,8.781676e+02,5.004389e+01,1.313347e+00,8.393185e+00,1.285600e+03,1174
2.058300e+03,883,1.594051e+00,8.814059e+02,3.560202e+01,1.391527e+00,8.442625e+00,1.290700e+03,1002
2.062900e+03,991,1.062319e+02,8.847681e+02,5.210793e+01,-1.139681e-01,8.496609e+00,1.295800e+03,1133
2.067500e+03,900,1.181788e+01,8.881821e+02,4.600186e+01,4.050014e-01,8.554100e+00,1301,1173
2.072100e+03,953,6.135252e+01,8.916475e+02,6.427334e+01,-5.562178e-02,8.615124e+00,1.306100e+03,1054
2.076700e+03,991,9.583634e+01,8.951637e+02,5.506684e+01,2.878334e-01,8.679716e+00,1.311300e+03,1003
2.081200e+03,970,7.134793e+01,8.986521e+02,5.681034e+01,-4.788962e-01,8.746394e+00,1.316400e+03,1073
2.085800e+03,1004,1.017328e+02,9.022672e+02,4.893295e+01,6.645771e-01,8.818163e+00,1.321500e+03,1107
2.090300e+03,843,-6.285147e+01,9.058515e+02,4.673279e+01,3.753732e-01,8.891951e+00,1.326600e+03,1252
2.094900e+03,1028,1.184364e+02,9.095636e+02,4.877007e+01,3.640910e-01,8.971092e+00,1.331800e+03,1162
2.099500e+03,870,-4.332387e+01,9.133239e+02,5.233205e+01,-8.880047e-01,9.054048e+00,1.336900e+03,1248
2104,963,4.595142e+01,9.170486e+02,4.856106e+01,-1.046580e+00,9.138956e+00,1342,1410
2.108600e+03,1031,1.100973e+02,9.209027e+02,6.403007e+01,-2.429649e+00,9.229662e+00,1.347100e+03,1289
2.113100e+03,1021,9.628178e+01,9.247182e+02,5.117975e+01,-2.261720e+00,9.322298e+00,1.352200e+03,1433
2.117700e+03,1004,7.533586e+01,9.286641e+02,6.885528e+01,-2.118263e+00,9.421065e+00,1.357300e+03,1298
2.122200e+03,978,4.543159e+01,9.325684e+02,6.620104e+01,-1.623787e+00,9.521758e+00,1.362400e+03,1257
2.126700e+03,965,2.848416e+01,9.365158e+02,4.580097e+01,1.315654e-01,9.626573e+00,1.367500e+03,1316
2.131300e+03,1021,8.040491e+01,9.405951e+02,3.021512e+01,1.221607e+00,9.738081e+00,1.372600e+03,923
2.135800e+03,972,2.737170e+01,9.446283e+02,6.300164e+00,2.047075e+00,9.851544e+00,1.377700e+03,1155
2.140300e+03,916,-3.270317e+01,9.487032e+02,-1.085295e+00,2.949704e+00,9.969453e+00,1.382700e+03,1229
2.144800e+03,940,-1.281923e+01,9.528192e+02,-8.512196e+00,3.521719e+00,1.009193e+01,1.387800e+03,1257
2.149400e+03,865,-9.206880e+01,9.570688e+02,-8.253022e+00,2.285551e+00,1.022199e+01,1.392900e+03,1164
2.153900e+03,955,-6.266629e+00,9.612666e+02,-1.274845e+01,1.898777e+00,1.035411e+01,1398,1149
2.158400e+03,942,-2.350415e+01,9.655041e+02,8.144866e+00,-2.720731e-01,1.049122e+01,1403,1028
2.162900e+03,1052,8.221913e+01,9.697809e+02,7.855994e+00,-3.612919e-01,1.063348e+01,1.408100e+03,1224
2.167400e+03,970,-4.096304e+00,9.740963e+02,1.825583e+01,-8.876253e-01,1.078106e+01,1.413100e+03,1145
2.171900e+03,1092,1.135500e+02,9.784500e+02,2.504602e+01,-1.140130e+00,1.093413e+01,1.418200e+03,1104
2.176400e+03,968,-1.484133e+01,9.828413e+02,3.579849e+01,-2.131396e+00,1.109288e+01,1.423200e+03,1231
2.180900e+03,968,-1.926994e+01,9.872699e+02,3.408514e+01,-1.077765e+00,1.125752e+01,1.428300e+03,1151
2.185400e+03,1033,4.126470e+01,9.917353e+02,3.134963e+01,-1.636776e+00,1.142827e+01,1.433300e+03,1107
2.189900e+03,1048,5.176310e+01,9.962369e+02,1.057797e+01,-9.178612e-01,1.160535e+01,1.438400e+03,1334
2.194400e+03,1071,7.022574e+01,1.000774e+03,2.134210e+01,-1.603029e+00,1.178900e+01,1.443400e+03,1044
2.198800e+03,982,-2.324490e+01,1.005245e+03,3.149963e+01,-1.369816e+00,1.197519e+01,1.448400e+03,1145
2.203300e+03,978,-3.185154e+01,1.009852e+03,2.747963e+01,-1.630482e+00,1.217265e+01,1.453500e+03,985
2.207800e+03,1075,6.050752e+01,1.014492e+03,5.297699e+00,1.087545e-02,1.237751e+01,1.458500e+03,1126
2.212300e+03,1071,5.183278e+01,1.019167e+03,-1.203537e+00,-1.037111e+00,1.259010e+01,1.463500e+03,1092
2.216800e+03,1037,1.312473e+01,1.023875e+03,-1.245143e+01,4.368955e-01,1.281075e+01,1.468500e+03,1001
2.221200e+03,925,-1.035104e+02,1.028510e+03,-8.303370e+00,8.945874e-01,1.303465e+01,1.473500e+03,1066
2.225700e+03,1058,2.471708e+01,1.033283e+03,-3.233030e+01,2.177229e+00,1.327234e+01,1.478600e+03,1071
2.230100e+03,936,-1.019801e+02,1.037980e+03,-4.694472e+01,5.736783e-01,1.351368e+01,1.483600e+03,1007
2.234600e+03,1040,-2.815138e+00,1.042815e+03,-6.487591e+01,1.296670e+00,1.377005e+01,1.488600e+03,1045
2.239100e+03,940,-1.076810e+02,1.047681e+03,-3.812272e+01,-7.676388e-01,1.403657e+01,1.493600e+03,1037
2.243500e+03,1002,-5.046813e+01,1.052468e+03,-5.638376e+01,2.120570e-01,1.430747e+01,1.498600e+03,1043
2248,945,-1.123936e+02,1.057394e+03,-5.083248e+01,-1.461336e+00,1.459561e+01,1.503600e+03,869
2.252400e+03,1146,8.376192e+01,1.062238e+03,-5.543716e+01,-1.734283e+00,1.488876e+01,1.508500e+03,902
2.256800e+03,964,-1.031102e+02,1.067110e+03,-4.848284e+01,-2.489775e+00,1.519380e+01,1.513500e+03,999
2.261300e+03,1009,-6.312120e+01,1.072121e+03,-7.028640e+01,8.626628e-02,1.551877e+01,1.518500e+03,915
2.265700e+03,1042,-3.504787e+01,1.077048e+03,-7.467269e+01,-1.254625e-01,1.584995e+01,1.523500e+03,884
2.270100e+03,1023,-5.900080e+01,1.082001e+03,-1.033711e+02,2.009307e+00,1.619520e+01,1.528500e+03,883
2.274600e+03,884,-2.030930e+02,1.087093e+03,-9.609555e+01,1.573085e+00,1.656372e+01,1.533400e+03,924
2279,949,-1.430977e+02,1.092098e+03,-1.181318e+02,3.023507e+00,1.694007e+01,1.538400e+03,1008
2.283400e+03,980,-1.171272e+02,1.097127e+03,-1.394788e+02,3.093416e+00,1.733330e+01,1.543300e+03,1090
2.287800e+03,1050,-5.218116e+01,1.102181e+03,-1.454217e+02,3.106628e+00,1.774451e+01,1.548300e+03,1016
2.292300e+03,890,-2.173748e+02,1.107375e+03,-1.325155e+02,2.062728e+00,1.818495e+01,1.553300e+03,1034
2.296700e+03,928,-1.844767e+02,1.112477e+03,-1.187757e+02,2.651482e+00,1.863641e+01,1.558200e+03,1249
2.301100e+03,1017,-1.006017e+02,1.117602e+03,-1.003447e+02,7.866865e-01,1.910995e+01,1.563200e+03,1171
2.305500e+03,1010,-1.127492e+02,1.122749e+03,-1.250792e+02,6.688291e-01,1.960725e+01,1.568100e+03,1444
2.309900e+03,1081,-4.691890e+01,1.127919e+03,-1.092479e+02,-6.990960e-02,2.013016e+01,1573,1695
2.314300e+03,1145,1.188979e+01,1.133110e+03,-9.343830e+01,-3.836905e-01,2.068076e+01,1578,2532
2.318700e+03,913,-2.253227e+02,1.138323e+03,-8.079274e+01,-7.382887e-01,2.126138e+01,1.582900e+03,3107
2.323100e+03,1037,-1.065559e+02,1.143556e+03,-5.729355e+01,-1.171423e+00,2.187466e+01,1.587800e+03,3324
2.327500e+03,1075,-7.380944e+01,1.148809e+03,-5.495743e+01,-2.146914e+00,2.252358e+01,1.592800e+03,3727
2.331900e+03,1142,-1.208275e+01,1.154083e+03,-6.392678e+01,-1.693364e+00,2.321155e+01,1.597700e+03,3423
2.336200e+03,1211,5.174508e+01,1.159255e+03,-5.562970e+01,-1.643890e+00,2.392535e+01,1.602600e+03,2815
2.340600e+03,1134,-3.056605e+01,1.164566e+03,-4.706575e+01,-7.740088e-01,2.470257e+01,1.607500e+03,2155
2345,1119,-5.089563e+01,1.169896e+03,-3.164553e+01,2.106504e-01,2.553229e+01,1.612400e+03,1535
2.349400e+03,1008,-1.672432e+02,1.175243e+03,-4.281461e+01,1.247867e+00,2.642056e+01,1.617300e+03,1265
2.353800e+03,1134,-4.660827e+01,1.180608e+03,-6.187545e+01,1.967720e+00,2.737445e+01,1.622200e+03,1012
2.358100e+03,1220,3.413209e+01,1.185868e+03,-6.064994e+01,1.776367e+00,2.837809e+01,1.627100e+03,1037
2.362500e+03,1101,-9.026629e+01,1.191266e+03,-6.101236e+01,2.042157e+00,2.948789e+01,1632,1008
2.366900e+03,1115,-8.168082e+01,1.196681e+03,-5.137308e+01,2.699773e+00,3.069331e+01,1.636900e+03,970
2.371200e+03,1180,-2.198746e+01,1.201987e+03,-3.617793e+01,8.803543e-01,3.197749e+01,1.641800e+03,901
2.375600e+03,1154,-5.343259e+01,1.207433e+03,-2.885466e+01,-3.732408e-01,3.341740e+01,1.646700e+03,837
2.379900e+03,1113,-9.976825e+01,1.212768e+03,-4.831765e+00,-8.992951e-01,3.496810e+01,1.651600e+03,844
2.384300e+03,1278,5.975784e+01,1.218242e+03,9.909151e+00,-1.989121e+00,3.672805e+01,1.656500e+03,870
2.388600e+03,1309,8.539492e+01,1.223605e+03,5.779532e+00,-1.996819e+00,3.864932e+01,1.661300e+03,817
2393,1307,7.789401e+01,1.229106e+03,2.135095e+01,-1.477984e+00,4.086330e+01,1.666200e+03,968
2.397300e+03,1256,2.150559e+01,1.234494e+03,4.590985e+01,-2.007611e+00,4.332184e+01,1.671100e+03,1004
2.401600e+03,1189,-5.089479e+01,1.239895e+03,3.261732e+01,-5.382679e-01,4.613945e+01,1.675900e+03,959
2406,1301,5.556731e+01,1.245433e+03,2.986651e+01,2.790269e-01,4.948685e+01,1.680800e+03,821
2.410300e+03,1323,7.214405e+01,1.250856e+03,3.012238e+01,6.100970e-01,5.333328e+01,1.685700e+03,939
2.414600e+03,1223,-3.328987e+01,1.256290e+03,2.265323e+01,2.328399e+00,5.791170e+01,1.690500e+03,747
2419,1328,6.613926e+01,1.261861e+03,3.317378e+01,4.022734e+00,6.358929e+01,1.695400e+03,879
2.423300e+03,1347,7.968509e+01,1.267315e+03,3.841676e+01,3.333388e+00,7.043138e+01,1.700200e+03,896
2.427600e+03,1242,-3.077844e+01,1.272778e+03,3.436462e+01,4.312918e+00,7.900928e+01,1.705100e+03,869
2.431900e+03,1301,2.274909e+01,1.278251e+03,4.873208e+01,3.652140e+00,8.997924e+01,1.709900e+03,989
2.436200e+03,1376,9.226812e+01,1.283732e+03,5.237653e+01,2.669441e+00,1.042923e+02,1.714700e+03,696
2.440500e+03,1333,4.377907e+01,1.289221e+03,7.887002e+01,3.800949e-01,1.233066e+02,1.719600e+03,925
2.444800e+03,1362,6.728238e+01,1.294718e+03,1.212130e+02,-1.924538e+00,1.488501e+02,1.724400e+03,896
2.449200e+03,1392,9.165040e+01,1.300350e+03,1.624242e+02,-5.507770e+00,1.838719e+02,1.729200e+03,854
2.453500e+03,1571,2.651395e+02,1.305860e+03,1.712001e+02,-6.331820e+00,2.276483e+02,1734,772
2.457800e+03,1577,2.656223e+02,1.311378e+03,2.078268e+02,-9.115582e+00,2.765817e+02,1.738900e+03,995
2462,1628,3.112277e+02,1.316772e+03,2.253046e+02,-9.106982e+00,3.153521e+02,1.743700e+03,721
2.466300e+03,1476,1.536993e+02,1.322301e+03,2.443667e+02,-8.234125e+00,3.255554e+02,1.748500e+03,913
2.470600e+03,1628,3.001657e+02,1.327834e+03,2.214238e+02,-5.645408e+00,3.003924e+02,1.753300e+03,752
2.474900e+03,1523,1.896275e+02,1.333372e+03,1.866375e+02,-3.367950e+00,2.566826e+02,1.758100e+03,837
2.479200e+03,1564,2.250851e+02,1.338915e+03,1.431144e+02,7.146416e-01,2.133424e+02,1.762900e+03,930
2.483500e+03,1449,1.045389e+02,1.344461e+03,1.261590e+02,2.045684e+00,1.786335e+02,1.767700e+03,872
2.487700e+03,1372,2.211844e+01,1.349882e+03,8.077159e+01,4.381857e+00,1.537617e+02,1.772500e+03,953
2492,1362,6.566022e+00,1.355434e+03,4.911405e+01,5.291957e+00,1.357939e+02,1.777300e+03,854
2.496300e+03,1396,3.501110e+01,1.360989e+03,2.159688e+01,3.575066e+00,1.234441e+02,1.782100e+03,851
2.500600e+03,1349,-1.754590e+01,1.366546e+03,4.524695e+00,2.366270e+00,1.151513e+02,1.786800e+03,875
2.504800e+03,1340,-3.197526e+01,1.371975e+03,2.371814e+01,1.003425e+00,1.099050e+02,1.791600e+03,886
2.509100e+03,1410,3.246489e+01,1.377535e+03,4.107170e+01,-1.556396e+00,1.067084e+02,1.796400e+03,894
2.513300e+03,1368,-1.496643e+01,1.382966e+03,2.156731e+01,-1.951897e+00,1.052178e+02,1.801200e+03,955
2.517600e+03,1545,1.564726e+02,1.388527e+03,1.136674e+01,-1.152538e+00,1.050168e+02,1.805900e+03,862
2.521800e+03,1522,1.280409e+02,1.393959e+03,1.743345e+01,-1.934744e+00,1.058889e+02,1.810700e+03,822
2.526100e+03,1298,-1.015196e+02,1.399520e+03,-1.619519e+01,6.528941e-01,1.077198e+02,1.815500e+03,896
2.530300e+03,1316,-8.894992e+01,1.404950e+03,-1.469857e+01,1.784970e+00,1.103272e+02,1.820200e+03,1031
2.534600e+03,1421,1.049176e+01,1.410508e+03,-4.575363e+01,2.193541e+00,1.137756e+02,1825,791
2.538800e+03,1213,-2.029356e+02,1.415936e+03,-8.280702e+01,2.929171e+00,1.178770e+02,1.829700e+03,870
2.543100e+03,1417,-4.490083e+00,1.421490e+03,-7.842970e+01,4.133656e+00,1.228233e+02,1.834500e+03,867
2.547300e+03,1366,-6.091287e+01,1.426913e+03,-6.676417e+01,2.473363e+00,1.284020e+02,1.839200e+03,1003
2.551500e+03,1301,-1.313328e+02,1.432333e+03,-6.950585e+01,2.468630e+00,1.347552e+02,1844,851
2.555800e+03,1367,-7.087835e+01,1.437878e+03,-6.281567e+01,1.611887e+00,1.421179e+02,1.848700e+03,907
2560,1436,-7.291233e+00,1.443291e+03,-7.610334e+01,6.403306e-01,1.502209e+02,1.853400e+03,868
2.564200e+03,1440,-8.700030e+00,1.448700e+03,-6.897669e+01,-6.409071e-01,1.593172e+02,1.858200e+03,776
2.568400e+03,1298,-1.561043e+02,1.454104e+03,-5.841695e+01,-1.746888e-01,1.695202e+02,1.862900e+03,1029
2.572600e+03,1362,-9.750378e+01,1.459504e+03,-2.069103e+01,-1.088063e+00,1.809690e+02,1.867600e+03,880
2.576900e+03,1454,-1.102630e+01,1.465026e+03,-2.681694e+01,-3.769487e-01,1.941575e+02,1.872300e+03,900
2.581100e+03,1413,-5.741463e+01,1.470415e+03,-4.450858e+01,7.510174e-01,2.086817e+02,1877,960
2.585300e+03,1669,1.932031e+02,1.475797e+03,-2.962268e+01,1.420791e+00,2.250805e+02,1.881800e+03,915
2.589500e+03,1431,-5.017263e+01,1.481173e+03,-2.930171e+01,2.106885e+00,2.436581e+02,1.886500e+03,991
2.593700e+03,1354,-1.325415e+02,1.486541e+03,-3.366977e+01,4.984817e+00,2.647869e+02,1.891200e+03,879
2.597900e+03,1440,-5.190307e+01,1.491903e+03,-2.458383e+01,5.371916e+00,2.889250e+02,1.895900e+03,776
2.602100e+03,1402,-9.525695e+01,1.497257e+03,-3.377595e+01,5.999831e+00,3.166404e+02,1.900600e+03,787
2.606300e+03,1461,-4.160275e+01,1.502603e+03,-6.817158e+00,7.942543e+00,3.486423e+02,1.905300e+03,820
2.610400e+03,1514,6.186924e+00,1.507813e+03,2.857866e+01,1.074596e+01,3.848707e+02,1910,943
2.614600e+03,1642,1.288583e+02,1.513142e+03,5.541191e+01,1.463613e+01,4.282031e+02,1.914700e+03,861
2.618800e+03,1657,1.385389e+02,1.518461e+03,7.827238e+01,2.236713e+01,4.792723e+02,1.919300e+03,752
2623,1639,1.152293e+02,1.523771e+03,1.277139e+02,3.033536e+01,5.399621e+02,1924,686
2.627200e+03,1665,1.359297e+02,1.529070e+03,1.834330e+02,4.158115e+01,6.127475e+02,1.928700e+03,877
2.631300e+03,1599,6.476635e+01,1.534234e+03,2.493054e+02,5.530907e+01,6.986105e+02,1.933400e+03,852
2.635500e+03,1844,3.044878e+02,1.539512e+03,3.562064e+02,6.862730e+01,8.060687e+02,1.938100e+03,853
2.639700e+03,1941,3.962206e+02,1.544779e+03,5.122615e+02,7.821236e+01,9.392284e+02,1.942700e+03,1011
2.643900e+03,2140,5.899650e+02,1.550035e+03,7.290602e+02,8.386579e+01,1.106378e+03,1.947400e+03,767
2648,2442,8.868462e+02,1.555154e+03,1.069139e+03,7.947431e+01,1.313369e+03,1952,848
2.652200e+03,2768,1.207615e+03,1.560385e+03,1.472533e+03,6.403284e+01,1.586124e+03,1.956700e+03,905
2.656300e+03,3219,1.653521e+03,1.565479e+03,2.001797e+03,3.544594e+01,1.932982e+03,1.961400e+03,907
2.660500e+03,4016,2.445315e+03,1.570685e+03,2.668806e+03,-5.583282e+00,2.400814e+03,1966,797
2.664600e+03,4704,3.128247e+03,1.575753e+03,3.431810e+03,-5.501098e+01,3.004178e+03,1.970700e+03,893
2.668800e+03,5682,4.101068e+03,1.580932e+03,4.240560e+03,-1.050438e+02,3.812241e+03,1.975300e+03,918
2.672900e+03,6845,5.259027e+03,1.585973e+03,5.009182e+03,-1.499618e+02,4.802306e+03,1980,873
2.677100e+03,7819,6.227878e+03,1.591122e+03,5.669103e+03,-1.823492e+02,5.952138e+03,1.984600e+03,812
2.681200e+03,8465,6.868866e+03,1.596134e+03,6.133182e+03,-1.946826e+02,6.965801e+03,1.989200e+03,899
2.685300e+03,8635,7.033869e+03,1.601131e+03,6.318008e+03,-1.857154e+02,7.476215e+03,1.993900e+03,828
2.689500e+03,8671,7.064766e+03,1.606234e+03,6.201690e+03,-1.575671e+02,7.199024e+03,1.998500e+03,851
2.693600e+03,7988,6.376800e+03,1.611200e+03,5.786547e+03,-1.148193e+02,6.298668e+03,2.003100e+03,917
2.697700e+03,7011,5.394850e+03,1.616150e+03,5.163992e+03,-6.382717e+01,5.174185e+03,2.007700e+03,907
2.701900e+03,6066,4.444797e+03,1.621203e+03,4.421168e+03,-1.441867e+01,4.101802e+03,2.012300e+03,995
2706,4948,3.321881e+03,1.626119e+03,3.603092e+03,2.866739e+01,3.247427e+03,2017,1077
2.710100e+03,4142,2.510981e+03,1.631019e+03,2.852177e+03,5.854022e+01,2.585940e+03,2.021600e+03,970
2.714200e+03,3470,1.834100e+03,1.635900e+03,2.172707e+03,7.567478e+01,2.082907e+03,2.026200e+03,866
2.718300e+03,2979,1.338236e+03,1.640764e+03,1.610273e+03,8.063334e+01,1.700386e+03,2.030800e+03,915
2.722400e+03,2766,1.120391e+03,1.645609e+03,1.179856e+03,7.726945e+01,1.407051e+03,2.035400e+03,1021
2.726500e+03,2289,6.385637e+02,1.650436e+03,8.640303e+02,6.646979e+01,1.179383e+03,2040,1031
2.730600e+03,2163,5.077558e+02,1.655244e+03,6.355088e+02,5.447421e+01,1.000327e+03,2.044600e+03,852
2.734700e+03,1969,3.089673e+02,1.660033e+03,4.611496e+02,4.142964e+01,8.576244e+02,2.049200e+03,989
2.738800e+03,1965,3.001985e+02,1.664801e+03,3.096673e+02,3.143455e+01,7.424441e+02,2.053800e+03,852
2.742900e+03,1904,2.344499e+02,1.669550e+03,2.146337e+02,2.206847e+01,6.483683e+02,2.058300e+03,883
2747,1792,1.177217e+02,1.674278e+03,1.324777e+02,1.665295e+01,5.706819e+02,2.062900e+03,991
2.751100e+03,1739,6.001437e+01,1.678986e+03,9.862824e+01,1.180886e+01,5.058788e+02,2.067500e+03,900
2.755200e+03,1657,-2.667174e+01,1.683672e+03,4.853037e+01,9.352043e+00,4.513197e+02,2.072100e+03,953
2.759300e+03,1621,-6.733624e+01,1.688336e+03,-4.031235e-01,7.103389e+00,4.049937e+02,2.076700e+03,991
2.763400e+03,1765,7.202122e+01,1.692979e+03,-4.688616e+01,6.540437e+00,3.653511e+02,2.081200e+03,970
2.767400e+03,1647,-5.048656e+01,1.697487e+03,-6.791837e+01,5.144830e+00,3.319605e+02,2.085800e+03,1004
2.771500e+03,1594,-1.080846e+02,1.702085e+03,-9.419793e+01,5.107939e+00,3.022182e+02,2.090300e+03,843
2.775600e+03,1499,-2.076596e+02,1.706660e+03,-1.001689e+02,3.740913e+00,2.762619e+02,2.094900e+03,1028
2.779700e+03,1624,-8.721108e+01,1.711211e+03,-1.239736e+02,3.145741e+00,2.534822e+02,2.099500e+03,870
2.783700e+03,1505,-2.106286e+02,1.715629e+03,-1.321839e+02,1.995025e+00,2.338479e+02,2104,963
2.787800e+03,1611,-1.091327e+02,1.720133e+03,-1.293702e+02,1.391247e+00,2.159825e+02,2.108600e+03,1031
2.791900e+03,1630,-9.461228e+01,1.724612e+03,-1.268025e+02,1.754826e+00,2.000763e+02,2.113100e+03,1021
2.795900e+03,1621,-1.079586e+02,1.728959e+03,-1.204958e+02,1.633105e+00,1.861840e+02,2.117700e+03,1004
2800,1645,-8.838850e+01,1.733388e+03,-1.380219e+02,1.808500e+00,1.733867e+02,2.122200e+03,978
2804,1548,-1.896857e+02,1.737686e+03,-1.499512e+02,1.772062e+00,1.621268e+02,2.126700e+03,965
2.808100e+03,1699,-4.306455e+01,1.742065e+03,-1.428398e+02,7.637493e-01,1.516826e+02,2.131300e+03,1021
2.812100e+03,1413,-3.333112e+02,1.746311e+03,-1.422744e+02,-3.788017e-01,1.424333e+02,2.135800e+03,972
2.816200e+03,1558,-1.926376e+02,1.750638e+03,-1.332540e+02,-3.213680e-01,1.338016e+02,2.140300e+03,916
2.820200e+03,1710,-4.483230e+01,1.754832e+03,-1.092076e+02,-2.696175e+00,1.261133e+02,2.144800e+03,940
2.824200e+03,1655,-1.040008e+02,1.759001e+03,-1.131195e+02,-2.766105e+00,1.190681e+02,2.149400e+03,865
2.828300e+03,1738,-2.524609e+01,1.763246e+03,-9.359057e+01,-2.442923e+00,1.124413e+02,2.153900e+03,955
2.832300e+03,1746,-2.136058e+01,1.767361e+03,-9.801947e+01,-2.034460e+00,1.064948e+02,2.158400e+03,942
2.836300e+03,1701,-7.044787e+01,1.771448e+03,-1.199924e+02,-1.034563e+00,1.010075e+02,2.162900e+03,1052
2.840400e+03,1579,-1.966087e+02,1.775609e+03,-1.379375e+02,1.214316e+00,9.581162e+01,2.167400e+03,970
2.844400e+03,1556,-2.236398e+02,1.779640e+03,-1.371256e+02,2.268709e-01,9.111944e+01,2.171900e+03,1092
2.848400e+03,1585,-1.986427e+02,1.783643e+03,-1.591424e+02,1.397783e+00,8.676379e+01,2.176400e+03,968
2.852400e+03,1558,-2.296170e+02,1.787617e+03,-1.580015e+02,1.545803e+00,8.271333e+01,2.180900e+03,968
2.856400e+03,1772,-1.956226e+01,1.791562e+03,-1.562455e+02,9.791181e-01,7.894027e+01,2.185400e+03,1033
2.860400e+03,1620,-1.754783e+02,1.795478e+03,-1.648887e+02,7.879389e-01,7.541989e+01,2.189900e+03,1048
2.864500e+03,1737,-6.246142e+01,1.799461e+03,-1.600736e+02,1.062483e+00,7.205071e+01,2.194400e+03,1071
2.868500e+03,1619,-1.843171e+02,1.803317e+03,-1.453713e+02,6.717143e-01,6.897700e+01,2.198800e+03,982
2.872500e+03,1523,-2.841423e+02,1.807142e+03,-1.740670e+02,2.169928e+00,6.609623e+01,2.203300e+03,978
2.876500e+03,1646,-1.649370e+02,1.810937e+03,-1.728749e+02,1.946104e+00,6.339260e+01,2.207800e+03,1075
2.880500e+03,1688,-1.267005e+02,1.814701e+03,-1.707676e+02,1.076237e+00,6.085189e+01,2.212300e+03,1071
2.884500e+03,1598,-2.204327e+02,1.818433e+03,-1.620576e+02,1.336989e+00,5.846130e+01,2.216800e+03,1037
2.888500e+03,1655,-1.671332e+02,1.822133e+03,-1.447446e+02,6.348234e-01,5.620923e+01,2.221200e+03,925
2.892400e+03,1778,-4.771031e+01,1.825710e+03,-1.598282e+02,3.731203e-01,5.413681e+01,2.225700e+03,1058
2.896400e+03,1706,-1.233471e+02,1.829347e+03,-1.355938e+02,-1.116814e+00,5.212845e+01,2.230100e+03,936
2.900400e+03,1670,-1.629512e+02,1.832951e+03,-1.108857e+02,-1.989991e+00,5.023016e+01,2.234600e+03,1040
2.904400e+03,1566,-2.705222e+02,1.836522e+03,-1.105734e+02,-1.242760e+00,4.843406e+01,2.239100e+03,940
2.908400e+03,1883,4.294030e+01,1.840060e+03,-1.129551e+02,-9.972155e-01,4.673293e+01,2.243500e+03,1002
2.912300e+03,1796,-4.747628e+01,1.843476e+03,-1.150175e+02,-2.470043e+00,4.515950e+01,2248,945
2.916300e+03,1682,-1.649468e+02,1.846947e+03,-1.127483e+02,-1.086433e+00,4.362717e+01,2.252400e+03,1146
2.920300e+03,1786,-6.438277e+01,1.850383e+03,-8.358764e+01,-1.224246e+00,4.217185e+01,2.256800e+03,964
2.924300e+03,1716,-1.377840e+02,1.853784e+03,-1.123807e+02,-8.606950e-01,4.078845e+01,2.261300e+03,1009
2.928200e+03,1710,-1.470663e+02,1.857066e+03,-1.227229e+02,4.701666e-01,3.950443e+01,2.265700e+03,1042
2.932200e+03,1794,-6.639772e+01,1.860398e+03,-1.070299e+02,-8.876861e-02,3.824974e+01,2.270100e+03,1023
2.936100e+03,1705,-1.586114e+02,1.863611e+03,-1.158614e+02,7.476161e-02,3.708337e+01,2.274600e+03,884
2.940100e+03,1747,-1.198717e+02,1.866872e+03,-1.252285e+02,1.409700e+00,3.594190e+01,2279,949
2.944100e+03,1815,-5.509547e+01,1.870095e+03,-1.275604e+02,1.573877e+00,3.485260e+01,2.283400e+03,980
2948,1747,-1.262032e+02,1.873203e+03,-1.382735e+02,2.469650e-01,3.383776e+01,2.287800e+03,1050
2952,1673,-2.033538e+02,1.876354e+03,-1.389616e+02,1.185981e+00,3.284249e+01,2.292300e+03,890
2.955900e+03,1716,-1.633896e+02,1.879390e+03,-1.091733e+02,-1.688630e-01,3.191401e+01,2.296700e+03,928
2.959800e+03,1741,-1.413893e+02,1.882389e+03,-1.203477e+02,1.252513e-01,3.102456e+01,2.301100e+03,1017
2.963800e+03,1722,-1.634282e+02,1.885428e+03,-1.280568e+02,-4.336963e-01,3.015060e+01,2.305500e+03,1010
2.967700e+03,1977,8.864607e+01,1.888354e+03,-1.305748e+02,7.831682e-01,2.933376e+01,2.309900e+03,1081
2.971700e+03,1758,-1.333163e+02,1.891316e+03,-9.905556e+01,-6.332413e-01,2.853019e+01,2.314300e+03,1145
2.975600e+03,1714,-1.801668e+02,1.894167e+03,-1.160801e+02,1.885946e+00,2.777826e+01,2.318700e+03,913
2.979500e+03,1676,-2.209797e+02,1.896980e+03,-1.107701e+02,2.473930e+00,2.705585e+01,2.323100e+03,1037
2.983400e+03,1957,5.724531e+01,1.899755e+03,-1.272790e+02,2.817015e+00,2.636142e+01,2.327500e+03,1075
2.987400e+03,1642,-2.605610e+02,1.902561e+03,-1.213103e+02,1.384609e+00,2.567677e+01,2.331900e+03,1142
2.991300e+03,1779,-1.262581e+02,1.905258e+03,-1.147314e+02,3.070569e+00,2.503476e+01,2.336200e+03,1211
2.995200e+03,1881,-2.691629e+01,1.907916e+03,-8.097057e+01,1.151879e+00,2.441669e+01,2.340600e+03,1134
2.999100e+03,1819,-9.153522e+01,1.910535e+03,-9.302752e+01,1.355446e-01,2.382137e+01,2345,1119
3003,1779,-1.341146e+02,1.913115e+03,-6.817767e+01,-1.587193e+00,2.324771e+01,2.349400e+03,1008
3.006900e+03,1931,1.534594e+01,1.915654e+03,-2.514509e+01,-2.856560e+00,2.269466e+01,2.353800e+03,1134
3.010800e+03,1891,-2.715335e+01,1.918153e+03,-1.535802e+01,-3.836129e+00,2.216124e+01,2.358100e+03,1220
3.014700e+03,1834,-8.661211e+01,1.920612e+03,-2.324471e+01,-1.986910e+00,2.164654e+01,2.362500e+03,1101
3.018600e+03,2098,1.749700e+02,1.923030e+03,-1.233414e+00,-3.117285e+00,2.114970e+01,2.366900e+03,1115
3.022500e+03,1967,4.159322e+01,1.925407e+03,7.247612e+00,-2.643294e+00,2.066988e+01,2.371200e+03,1180
3.026400e+03,1781,-1.467421e+02,1.927742e+03,-2.658451e+00,-3.033470e-02,2.020633e+01,2.375600e+03,1154
3.030300e+03,1950,1.996447e+01,1.930036e+03,-1.180843e+01,1.166288e+00,1.975831e+01,2.379900e+03,1113
3.034200e+03,2007,7.471312e+01,1.932287e+03,-2.705914e+01,-1.026154e-01,1.932513e+01,2.384300e+03,1278
3.038100e+03,1838,-9.649579e+01,1.934496e+03,-3.612455e+01,1.057230e+00,1.890615e+01,2.388600e+03,1309
3042,1786,-1.506619e+02,1.936662e+03,-4.568386e+00,5.758281e-01,1.850076e+01,2393,1307
3.045900e+03,2007,6.821501e+01,1.938785e+03,-1.996931e+01,6.576670e-01,1.810836e+01,2.397300e+03,1256
3.049800e+03,1919,-2.186465e+01,1.940865e+03,-2.889841e+01,4.088927e-01,1.772841e+01,2.401600e+03,1189
3.053600e+03,2017,7.415106e+01,1.942849e+03,-5.634212e+00,-5.339902e-01,1.736968e+01,2406,1301
3.057500e+03,1857,-8.784196e+01,1.944842e+03,8.245131e+00,-1.831747e-01,1.701280e+01,2.410300e+03,1323
3.061400e+03,1959,1.220937e+01,1.946791e+03,-1.197435e+01,2.037612e+00,1.666690e+01,2.414600e+03,1223
3.065200e+03,2015,6.635363e+01,1.948646e+03,-1.785738e+01,1.870100e+00,1.633999e+01,2419,1328
3.069100e+03,1897,-5.350653e+01,1.950507e+03,-2.056043e+01,1.858053e+00,1.601447e+01,2.423300e+03,1347
3073,1879,-7.332139e+01,1.952321e+03,7.327737e-02,2.421399e+00,1.569865e+01,2.427600e+03,1242
3.076800e+03,1891,-6.304582e+01,1.954046e+03,5.466389e+00,2.062435e+00,1.539991e+01,2.431900e+03,1301
3.080700e+03,2011,5.522972e+01,1.955770e+03,-9.239087e+00,1.911478e+00,1.510215e+01,2.436200e+03,1376
3.084500e+03,2014,5.659397e+01,1.957406e+03,2.010118e+01,7.773412e-01,1.482034e+01,2.440500e+03,1333
3.088400e+03,2009,4.996115e+01,1.959039e+03,4.335004e+01,3.853889e-01,1.453929e+01,2.444800e+03,1362
3.092200e+03,1924,-3.658471e+01,1.960585e+03,6.763871e+01,4.716396e-01,1.427314e+01,2.449200e+03,1392
3.096100e+03,2114,1.518754e+02,1.962125e+03,7.883623e+01,5.861379e-01,1.400758e+01,2.453500e+03,1571
3.099900e+03,2053,8.942062e+01,1.963579e+03,8.121738e+01,5.539746e-01,1.375596e+01,2.457800e+03,1577
3.103800e+03,2072,1.069748e+02,1.965025e+03,8.950767e+01,8.030419e-01,1.350476e+01,2462,1628
3.107600e+03,2100,1.336124e+02,1.966388e+03,1.129870e+02,5.952771e-01,1.326662e+01,2.466300e+03,1476
3.111500e+03,2041,7.326200e+01,1.967738e+03,1.328042e+02,6.237851e-01,1.302876e+01,2.470600e+03,1628
3.115300e+03,2077,1.079931e+02,1.969007e+03,1.562353e+02,-7.789440e-02,1.280315e+01,2.474900e+03,1523
3.119100e+03,2098,1.277709e+02,1.970229e+03,1.652902e+02,-5.759243e-01,1.258341e+01,2.479200e+03,1564
3.122900e+03,2262,2.905956e+02,1.971404e+03,1.833923e+02,-9.593930e-01,1.236933e+01,2.483500e+03,1449
3.126800e+03,2226,2.534384e+02,1.972562e+03,2.228326e+02,-2.379736e+00,1.215529e+01,2.487700e+03,1372
3.130600e+03,2144,1.703590e+02,1.973641e+03,2.303172e+02,-1.224210e+00,1.195209e+01,2492,1362
3.134400e+03,2235,2.603274e+02,1.974673e+03,2.467070e+02,-7.709724e-01,1.175400e+01,2.496300e+03,1396
3.138200e+03,2325,3.493440e+02,1.975656e+03,2.522882e+02,-1.015546e+00,1.156083e+01,2.500600e+03,1349
3.142100e+03,2137,1.603849e+02,1.976615e+03,2.580651e+02,1.887352e-01,1.136753e+01,2.504800e+03,1340
3.145900e+03,2220,2.424998e+02,1.977500e+03,2.867481e+02,2.144214e+00,1.118386e+01,2.509100e+03,1410
3.149700e+03,2308,3.296637e+02,1.978336e+03,2.906231e+02,1.968873e+00,1.100465e+01,2.513300e+03,1368
3.153500e+03,2273,2.938769e+02,1.979123e+03,2.732618e+02,3.940470e+00,1.082975e+01,2.517600e+03,1545
3.157300e+03,2351,3.711397e+02,1.979860e+03,3.069538e+02,3.532378e+00,1.065903e+01,2.521800e+03,1522
3.161100e+03,2268,2.874524e+02,1.980548e+03,3.215528e+02,3.181551e+00,1.049235e+01,2.526100e+03,1298
3.164900e+03,2209,2.278153e+02,1.981185e+03,3.382019e+02,2.887838e+00,1.032959e+01,2.530300e+03,1316
3.168700e+03,2378,3.962286e+02,1.981771e+03,3.719016e+02,4.778585e+00,1.017063e+01,2.534600e+03,1421
3.172500e+03,2327,3.446927e+02,1.982307e+03,4.122248e+02,1.929615e+00,1.001534e+01,2.538800e+03,1213
3.176300e+03,2429,4.462079e+02,1.982792e+03,4.361703e+02,3.598777e+00,9.863617e+00,2.543100e+03,1417
3.180100e+03,2513,5.297745e+02,1.983226e+03,4.860241e+02,6.011817e+00,9.715349e+00,2.547300e+03,1366
3.183800e+03,2637,6.534021e+02,1.983598e+03,5.165008e+02,9.685854e+00,9.574204e+00,2.551500e+03,1301
3.187600e+03,2439,4.550709e+02,1.983929e+03,5.467435e+02,1.369847e+01,9.432454e+00,2.555800e+03,1367
3.191400e+03,2561,5.767919e+02,1.984208e+03,5.647530e+02,1.823878e+01,9.293860e+00,2560,1436
3.195200e+03,2594,6.095655e+02,1.984435e+03,6.846992e+02,1.791832e+01,9.158329e+00,2.564200e+03,1440
3199,2541,5.563919e+02,1.984608e+03,6.925235e+02,0,9.025772e+00,2.568400e+03,1298
3.202700e+03,2557,5.722740e+02,1.984726e+03,7.716744e+02,0,8.899477e+00,2.572600e+03,1362
 , , , , , , ,2.576900e+03,1454
 , , , , , , ,2.581100e+03,1413
 , , , , , , ,2.585300e+03,1669
 , , , , , , ,2.589500e+03,1431
 , , , , , , ,2.593700e+03,1354
 , , , , , , ,2.597900e+03,1440
 , , , , , , ,2.602100e+03,1402
 , , , , , , ,2.606300e+03,1461
 , , , , , , ,2.610400e+03,1514
 , , , , , , ,2.614600e+03,1642
 , , , , , , ,2.618800e+03,1657
 , , , , , , ,2623,1639
 , , , , , , ,2.627200e+03,1665
 , , , , , , ,2.631300e+03,1599
 , , , , , , ,2.635500e+03,1844
 , , , , , , ,2.639700e+03,1941
 , , , , , , ,2.643900e+03,2140
 , , , , , , ,2648,2442
 , , , , , , ,2.652200e+03,2768
 , , , , , , ,2.656300e+03,3219
 , , , , , , ,2.660500e+03,4016
 , , , , , , ,2.664600e+03,4704
 , , , , , , ,2.668800e+03,5682
 , , , , , , ,2.672900e+03,6845
 , , , , , , ,2.677100e+03,7819
 , , , , , , ,2.681200e+03,8465
 , , , , , , ,2.685300e+03,8635
 , , , , , , ,2.689500e+03,8671
 , , , , , , ,2.693600e+03,7988
 , , , , , , ,2.697700e+03,7011
 , , , , , , ,2.701900e+03,6066
 , , , , , , ,2706,4948
 , , , , , , ,2.710100e+03,4142
 , , , , , , ,2.714200e+03,3470
 , , , , , , ,2.718300e+03,2979
 , , , , , , ,2.722400e+03,2766
 , , , , , , ,2.726500e+03,2289
 , , , , , , ,2.730600e+03,2163
 , , , , , , ,2.734700e+03,1969
 , , , , , , ,2.738800e+03,1965
 , , , , , , ,2.742900e+03,1904
 , , , , , , ,2747,1792
 , , , , , , ,2.751100e+03,1739
 , , , , , , ,2.755200e+03,1657
 , , , , , , ,2.759300e+03,1621
 , , , , , , ,2.763400e+03,1765
 , , , , , , ,2.767400e+03,1647
 , , , , , , ,2.771500e+03,1594
 , , , , , , ,2.775600e+03,1499
 , , , , , , ,2.779700e+03,1624
 , , , , , , ,2.783700e+03,1505
 , , , , , , ,2.787800e+03,1611
 , , , , , , ,2.791900e+03,1630
 , , , , , , ,2.795900e+03,1621
 , , , , , , ,2800,1645
 , , , , , , ,2804,1548
 , , , , , , ,2.808100e+03,1699
 , , , , , , ,2.812100e+03,1413
 , , , , , , ,2.816200e+03,1558
 , , , , , , ,2.820200e+03,1710
 , , , , , , ,2.824200e+03,1655
 , , , , , , ,2.828300e+03,1738
 , , , , , , ,2.832300e+03,1746
 , , , , , , ,2.836300e+03,1701
 , , , , , , ,2.840400e+03,1579
 , , , , , , ,2.844400e+03,1556
 , , , , , , ,2.848400e+03,1585
 , , , , , , ,2.852400e+03,1558
 , , , , , , ,2.856400e+03,1772
 , , , , , , ,2.860400e+03,1620
 , , , , , , ,2.864500e+03,1737
 , , , , , , ,2.868500e+03,1619
 , , , , , , ,2.872500e+03,1523
 , , , , , , ,2.876500e+03,1646
 , , , , , , ,2.880500e+03,1688
 , , , , , , ,2.884500e+03,1598
 , , , , , , ,2.888500e+03,1655
 , , , , , , ,2.892400e+03,1778
 , , , , , , ,2.896400e+03,1706
 , , , , , , ,2.900400e+03,1670
 , , , , , , ,2.904400e+03,1566
 , , , , , , ,2.908400e+03,1883
 , , , , , , ,2.912300e+03,1796
 , , , , , , ,2.916300e+03,1682
 , , , , , , ,2.920300e+03,1786
 , , , , , , ,2.924300e+03,1716
 , , , , , , ,2.928200e+03,1710
 , , , , , , ,2.932200e+03,1794
 , , , , , , ,2.936100e+03,1705
 , , , , , , ,2.940100e+03,1747
 , , , , , , ,2.944100e+03,1815
 , , , , , , ,2948,1747
 , , , , , , ,2952,1673
 , , , , , , ,2.955900e+03,1716
 , , , , , , ,2.959800e+03,1741
 , , , , , , ,2.963800e+03,1722
 , , , , , , ,2.967700e+03,1977
 , , , , , , ,2.971700e+03,1758
 , , , , , , ,2.975600e+03,1714
 , , , , , , ,2.979500e+03,1676
 , , , , , , ,2.983400e+03,1957
 , , , , , , ,2.987400e+03,1642
 , , , , , , ,2.991300e+03,1779
 , , , , , , ,2.995200e+03,1881
 , , , , , , ,2.999100e+03,1819
 , , , , , , ,3003,1779
 , , , , , , ,3.006900e+03,1931
 , , , , , , ,3.010800e+03,1891
 , , , , , , ,3.014700e+03,1834
 , , , , , , ,3.018600e+03,2098
 , , , , , , ,3.022500e+03,1967
 , , , , , , ,3.026400e+03,1781
 , , , , , , ,3.030300e+03,1950
 , , , , , , ,3.034200e+03,2007
 , , , , , , ,3.038100e+03,1838
 , , , , , , ,3042,1786
 , , , , , , ,3.045900e+03,2007
 , , , , , , ,3.049800e+03,1919
 , , , , , , ,3.053600e+03,2017
 , , , , , , ,3.057500e+03,1857
 , , , , , , ,3.061400e+03,1959
 , , , , , , ,3.065200e+03,2015
 , , , , , , ,3.069100e+03,1897
 , , , , , , ,3073,1879
 , , , , , , ,3.076800e+03,1891
 , , , , , , ,3.080700e+03,2011
 , , , , , , ,3.084500e+03,2014
 , , , , , , ,3.088400e+03,2009
 , , , , , , ,3.092200e+03,1924
 , , , , , , ,3.096100e+03,2114
 , , , , , , ,3.099900e+03,2053
 , , , , , , ,3.103800e+03,2072
 , , , , , , ,3.107600e+03,2100
 , , , , , , ,3.111500e+03,2041
 , , , , , , ,3.115300e+03,2077
 , , , , , , ,3.119100e+03,2098
 , , , , , , ,3.122900e+03,2262
 , , , , , , ,3.126800e+03,2226
 , , , , , , ,3.130600e+03,2144
 , , , , , , ,3.134400e+03,2235
 , , , , , , ,3.138200e+03,2325
 , , , , , , ,3.142100e+03,2137
 , , , , , , ,3.145900e+03,2220
 , , , , , , ,3.149700e+03,2308
 , , , , , , ,3.153500e+03,2273
 , , , , , , ,3.157300e+03,2351
 , , , , , , ,3.161100e+03,2268
 , , , , , , ,3.164900e+03,2209
 , , , , , , ,3.168700e+03,2378
 , , , , , , ,3.172500e+03,2327
 , , , , , , ,3.176300e+03,2429
 , , , , , , ,3.180100e+03,2513
 , , , , , , ,3.183800e+03,2637
 , , , , , , ,3.187600e+03,2439
 , , , , , , ,3.191400e+03,2561
 , , , , , , ,3.195200e+03,2594
 , , , , , , ,3199,2541
 , , , , , , ,3.202700e+03,2557
 , , , , , , ,3.206500e+03,2575
 , , , , , , ,3.210300e+03,2658
 , , , , , , ,3214,2572
 , , , , , , ,3.217800e+03,2698
 , , , , , , ,3.221600e+03,2593
 , , , , , , ,3.225300e+03,2804
 , , , , , , ,3.229100e+03,2730
 , , , , , , ,3.232800e+03,2854
 , , , , , , ,3.236600e+03,2966
 , , , , , , ,3.240300e+03,3076
 , , , , , , ,3.244100e+03,3006
 , , , , , , ,3.247800e+03,3189
 , , , , , , ,3.251500e+03,3039
 , , , , , , ,3.255300e+03,3089
 , , , , , , ,3259,3067
 , , , , , , ,3.262700e+03,2964
 , , , , , , ,3.266500e+03,2812
 , , , , , , ,3.270200e+03,2751
 , , , , , , ,3.273900e+03,2882
 , , , , , , ,3.277600e+03,2685
 , , , , , , ,3.281300e+03,2913
 , , , , , , ,3.285100e+03,2789
 , , , , , , ,3.288800e+03,2733
 , , , , , , ,3.292500e+03,2882
 , , , , , , ,3.296200e+03,2988
 , , , , , , ,3.299900e+03,2947
 , , , , , , ,3.303600e+03,2794
 , , , , , , ,3.307300e+03,2947
 , , , , , , ,3311,2819
 , , , , , , ,3.314700e+03,2937
 , , , , , , ,3.318400e+03,2935
 , , , , , , ,3.322100e+03,3020
 , , , , , , ,3.325800e+03,2817
 , , , , , , ,3.329400e+03,2960
 , , , , , , ,3.333100e+03,2933
 , , , , , , ,3.336800e+03,3180
 , , , , , , ,3.340500e+03,2931
 , , , , , , ,3.344200e+03,3167
 , , , , , , ,3.347800e+03,2953
 , , , , , , ,3.351500e+03,2988
 , , , , , , ,3.355200e+03,3093
 , , , , , , ,3.358800e+03,3052
 , , , , , , ,3.362500e+03,3035
 , , , , , , ,3.366100e+03,3061
 , , , , , , ,3.369800e+03,3143
 , , , , , , ,3.373500e+03,3101
 , , , , , , ,3.377100e+03,3058
 , , , , , , ,3.380800e+03,3222
 , , , , , , ,3.384400e+03,3169
 , , , , , , ,3388,3250
 , , , , , , ,3.391700e+03,3154
 , , , , , , ,3.395300e+03,3278
 , , , , , , ,3399,3215
 , , , , , , ,3.402600e+03,3124
 , , , , , , ,3.406200e+03,3231
 , , , , , , ,3.409900e+03,3295
 , , , , , , ,3.413500e+03,3270
 , , , , , , ,3.417100e+03,3332
 , , , , , , ,3.420700e+03,3175
 , , , , , , ,3.424300e+03,3282
 , , , , , , ,3428,3396
 , , , , , , ,3.431600e+03,3253
 , , , , , , ,3.435200e+03,3297
 , , , , , , ,3.438800e+03,3261
 , , , , , , ,3.442400e+03,3307
 , , , , , , ,3446,3249
 , , , , , , ,3.449600e+03,3297
 , , , , , , ,3.453200e+03,3236
 , , , , , , ,3.456800e+03,3228
 , , , , , , ,3.460400e+03,3114
 , , , , , , ,3464,3229
 , , , , , , ,3.467600e+03,3118
 , , , , , , ,3.471200e+03,3209
 , , , , , , ,3.474700e+03,3099
 , , , , , , ,3.478300e+03,3091
 , , , , , , ,3.481900e+03,3154
 , , , , , , ,3.485500e+03,3183
 , , , , , , ,3.489100e+03,3145
 , , , , , , ,3.492600e+03,3259
 , , , , , , ,3.496200e+03,3131
 , , , , , , ,3.499800e+03,2977
 , , , , , , ,3.503300e+03,3048
 , , , , , , ,3.506900e+03,3131
 , , , , , , ,3.510500e+03,3159
 , , , , , , ,3514,3048
 , , , , , , ,3.517600e+03,2956
 , , , , , , ,3.521100e+03,3114
 , , , , , , ,3.524700e+03,3045
 , , , , , , ,3.528200e+03,3002
 , , , , , , ,3.531800e+03,2994
 , , , , , , ,3.535300e+03,3018
 , , , , , , ,3.538800e+03,3135
 , , , , , , ,3.542400e+03,2918
 , , , , , , ,3.545900e+03,3095
 , , , , , , ,3.549400e+03,2924
 , , , , , , ,3553,2881
 , , , , , , ,3.556500e+03,2888
 , , , , , , ,3560,2932
 , , , , , , ,3.563500e+03,2989
 , , , , , , ,3.567100e+03,2956
 , , , , , , ,3.570600e+03,2962
 , , , , , , ,3.574100e+03,2813
 , , , , , , ,3.577600e+03,2850
 , , , , , , ,3.581100e+03,2915
 , , , , , , ,3.584600e+03,2764
 , , , , , , ,3.588100e+03,2861
 , , , , , , ,3.591600e+03,2897
 , , , , , , ,3.595100e+03,2846
 , , , , , , ,3.598600e+03,2810
 , , , , , , ,3.602100e+03,2922
 , , , , , , ,3.605600e+03,2745
 , , , , , , ,3.609100e+03,2795
 , , , , , , ,3.612600e+03,2712
 , , , , , , ,3.616100e+03,2692
 , , , , , , ,3.619600e+03,2610
 , , , , , , ,3.623100e+03,2730
 , , , , , , ,3.626500e+03,2684
 , , , , , , ,3630,2621
 , , , , , , ,3.633500e+03,2722
 , , , , , , ,3637,2660
 , , , , , , ,3.640400e+03,2477
 , , , , , , ,3.643900e+03,2610
 , , , , , , ,3.647400e+03,2564
 , , , , , , ,3.650800e+03,2599
 , , , , , , ,3.654300e+03,2553
 , , , , , , ,3.657700e+03,2487
 , , , , , , ,3.661200e+03,2659
 , , , , , , ,3.664700e+03,2517
 , , , , , , ,3.668100e+03,2575
 , , , , , , ,3.671500e+03,2563
 , , , , , , ,3675,2502
 , , , , , , ,3.678400e+03,2595
 , , , , , , ,3.681900e+03,2589
 , , , , , , ,3.685300e+03,2537
 , , , , , , ,3.688800e+03,2544
 , , , , , , ,3.692200e+03,2435
 , , , , , , ,3.695600e+03,2507
 , , , , , , ,3699,2499
 , , , , , , ,3.702500e+03,2498
 , , , , , , ,3.705900e+03,2517
 , , , , , , ,3.709300e+03,2551
 , , , , , , ,3.712700e+03,2513
 , , , , , , ,3.716200e+03,2570
 , , , , , , ,3.719600e+03,2435
 , , , , , , ,3723,2545
 , , , , , , ,3.726400e+03,2422
 , , , , , , ,3.729800e+03,2618
 , , , , , , ,3.733200e+03,2511
 , , , , , , ,3.736600e+03,2482
 , , , , , , ,3740,2546
 , , , , , , ,3.743400e+03,2500
 , , , , , , ,3.746800e+03,2473
 , , , , , , ,3.750200e+03,2544
 , , , , , , ,3.753600e+03,2428
 , , , , , , ,3757,2574
 , , , , , , ,3.760400e+03,2639
 , , , , , , ,3.763800e+03,2462
 , , , , , , ,3.767100e+03,2532
 , , , , , , ,3.770500e+03,2498
 , , , , , , ,3.773900e+03,2555
 , , , , , , ,3.777300e+03,2524
 , , , , , , ,3.780600e+03,2494
 , , , , , , ,3784,2602
 , , , , , , ,3.787400e+03,2627
 , , , , , , ,3.790800e+03,2467
 , , , , , , ,3.794100e+03,2351
 , , , , , , ,3.797500e+03,2629
 , , , , , , ,3.800800e+03,2433
 , , , , , , ,3.804200e+03,2637
 , , , , , , ,3.807600e+03,2650
 , , , , , , ,3.810900e+03,2579
 , , , , , , ,3.814300e+03,2536
 , , , , , , ,3.817600e+03,2471
 , , , , , , ,3.820900e+03,2553
 , , , , , , ,3.824300e+03,2464
 , , , , , , ,3.827600e+03,2726
 , , , , , , ,3831,2534
 , , , , , , ,3.834300e+03,2492
 , , , , , , ,3.837600e+03,2549
 , , , , , , ,3841,2498
 , , , , , , ,3.844300e+03,2564
 , , , , , , ,3.847600e+03,2543
 , , , , , , ,3851,2484
 , , , , , , ,3.854300e+03,2580
 , , , , , , ,3.857600e+03,2508
 , , , , , , ,3.860900e+03,2612
 , , , , , , ,3.864200e+03,2553
 , , , , , , ,3.867500e+03,2475
 , , , , , , ,3.870900e+03,2513
 , , , , , , ,3.874200e+03,2555
 , , , , , , ,3.877500e+03,2733
 , , , , , , ,3.880800e+03,2580
 , , , , , , ,3.884100e+03,2639
 , , , , , , ,3.887400e+03,2579
 , , , , , , ,3.890700e+03,2735
 , , , , , , ,3894,2515
 , , , , , , ,3.897300e+03,2555
 , , , , , , ,3.900600e+03,2608
 , , , , , , ,3.903800e+03,2574
 , , , , , , ,3.907100e+03,2640
 , , , , , , ,3.910400e+03,2591
 , , , , , , ,3.913700e+03,2643
 , , , , , , ,3917,2692
 , , , , , , ,3.920300e+03,2696
 , , , , , , ,3.923500e+03,2770
 , , , , , , ,3.926800e+03,2648
 , , , , , , ,3.930100e+03,2724
 , , , , , , ,3.933300e+03,2543
 , , , , , , ,3.936600e+03,2627
 , , , , , , ,3.939900e+03,2711
 , , , , , , ,3.943100e+03,2673
 , , , , , , ,3.946400e+03,2694
 , , , , , , ,3.949700e+03,2770
 , , , , , , ,3.952900e+03,2624
 , , , , , , ,3.956200e+03,2711
 , , , , , , ,3.959400e+03,2726
 , , , , , , ,3.962700e+03,2743
 , , , , , , ,3.965900e+03,2640
 , , , , , , ,3.969200e+03,2742
 , , , , , , ,3.972400e+03,2688
 , , , , , , ,3.975600e+03,2722
 , , , , , , ,3.978900e+03,2783
 , , , , , , ,3.982100e+03,2851
 , , , , , , ,3.985300e+03,2715
 , , , , , , ,3.988600e+03,2771
 , , , , , , ,3.991800e+03,2768
 , , , , , , ,3995,2645
 , , , , , , ,3.998300e+03,2753
 , , , , , , ,4.001500e+03,2735
 , , , , , , ,4.004700e+03,2851
 , , , , , , ,4.007900e+03,2910
 , , , , , , ,4.011100e+03,2643
 , , , , , , ,4.014300e+03,2724
 , , , , , , ,4.017600e+03,2787
 , , , , , , ,4.020800e+03,2873
 , , , , , , ,4024,2825
 , , , , , , ,4.027200e+03,2806
 , , , , , , ,4.030400e+03,2652
 , , , , , , ,4.033600e+03,2894
 , , , , , , ,4.036800e+03,2853
 , , , , , , ,4040,2791
 , , , , , , ,4.043200e+03,2829
 , , , , , , ,4.046400e+03,2741
 , , , , , , ,4.049500e+03,2808
 , , , , , , ,4.052700e+03,2870
 , , , , , , ,4.055900e+03,2815
 , , , , , , ,4.059100e+03,2804
 , , , , , , ,4.062300e+03,2704
 , , , , , , ,4.065500e+03,2943
 , , , , , , ,4.068600e+03,2686
 , , , , , , ,4.071800e+03,2897
 , , , , , , ,4075,2743
 , , , , , , ,4.078200e+03,2783
 , , , , , , ,4.081300e+03,2856
 , , , , , , ,4.084500e+03,2682
 , , , , , , ,4.087600e+03,2787
 , , , , , , ,4.090800e+03,2793
 , , , , , , ,4094,2709
 , , , , , , ,4.097100e+03,2907
 , , , , , , ,4.100300e+03,2821
 , , , , , , ,4.103400e+03,2638
 , , , , , , ,4.106600e+03,2844
 , , , , , , ,4.109700e+03,2792
 , , , , , , ,4.112900e+03,2901
 , , , , , , ,4116,2910
 , , , , , , ,4.119200e+03,2832
 , , , , , , ,4.122300e+03,2671
 , , , , , , ,4.125400e+03,2816
 , , , , , , ,4.128600e+03,2948
 , , , , , , ,4.131700e+03,2831
 , , , , , , ,4.134800e+03,2960
 , , , , , , ,4138,2910
 , , , , , , ,4.141100e+03,2928
 , , , , , , ,4.144200e+03,2857
 , , , , , , ,4.147300e+03,2981
 , , , , , , ,4.150500e+03,2851
 , , , , , , ,4.153600e+03,2886
 , , , , , , ,4.156700e+03,3002
 , , , , , , ,4.159800e+03,2922
 , , , , , , ,4.162900e+03,2882
 , , , , , , ,4166,2871
 , , , , , , ,4.169100e+03,2975
 , , , , , , ,4.172300e+03,3076
 , , , , , , ,4.175400e+03,3049
 , , , , , , ,4.178500e+03,3122
 , , , , , , ,4.181600e+03,2962
 , , , , , , ,4.184700e+03,3059
 , , , , , , ,4.187700e+03,2994
 , , , , , , ,4.190800e+03,2987
 , , , , , , ,4.193900e+03,3079
 , , , , , , ,4197,2969
 , , , , , , ,4.200100e+03,3131
 , , , , , , ,4.203200e+03,3072
 , , , , , , ,4.206300e+03,3160
 , , , , , , ,4.209400e+03,3013
 , , , , , , ,4.212400e+03,3111
 , , , , , , ,4.215500e+03,3178
 , , , , , , ,4.218600e+03,3194
 , , , , , , ,4.221700e+03,3164
 , , , , , , ,4.224700e+03,3209
 , , , , , , ,4.227800e+03,3092
 , , , , , , ,4.230900e+03,3225
 , , , , , , ,4.233900e+03,3130
 , , , , , , ,4237,3369
 , , , , , , ,4240,3201
 , , , , , , ,4.243100e+03,3327
 , , , , , , ,4.246200e+03,3154
 , , , , , , ,4.249200e+03,3314
 , , , , , , ,4.252300e+03,3496
 , , , , , , ,4.255300e+03,3352
 , , , , , , ,4.258400e+03,3517
 , , , , , , ,4.261400e+03,3327
 , , , , , , ,4.264400e+03,3434
 , , , , , , ,4.267500e+03,3550
 , , , , , , ,4.270500e+03,3492
 , , , , , , ,4.273600e+03,3521
 , , , , , , ,4.276600e+03,3561
 , , , , , , ,4.279600e+03,3539
 , , , , , , ,4.282700e+03,3434
 , , , , , , ,4.285700e+03,3312
 , , , , , , ,4.288700e+03,3371
 , , , , , , ,4.291700e+03,3459
 , , , , , , ,4.294800e+03,3325
 , , , , , , ,4.297800e+03,3315
 , , , , , , ,4.300800e+03,3156
 , , , , , , ,4.303800e+03,3218
 , , , , , , ,4.306800e+03,3119
 , , , , , , ,4.309800e+03,2981
 , , , , , , ,4.312900e+03,3131
 , , , , , , ,4.315900e+03,3177
 , , , , , , ,4.318900e+03,3178
 , , , , , , ,4.321900e+03,3171
 , , , , , , ,4.324900e+03,3042
 , , , , , , ,4.327900e+03,3191
 , , , , , , ,4.330900e+03,3143
 , , , , , , ,4.333900e+03,3099
 , , , , , , ,4.336900e+03,3072
 , , , , , , ,4.339900e+03,3072
 , , , , , , ,4.342800e+03,3236
 , , , , , , ,4.345800e+03,3270
 , , , , , , ,4.348800e+03,3156
 , , , , , , ,4.351800e+03,3110
 , , , , , , ,4.354800e+03,3059
 , , , , , , ,4.357800e+03,3048
 , , , , , , ,4.360700e+03,3188
 , , , , , , ,4.363700e+03,3215
 , , , , , , ,4.366700e+03,3131
 , , , , , , ,4.369700e+03,3272
 , , , , , , ,4.372600e+03,3196
 , , , , , , ,4.375600e+03,3247
 , , , , , , ,4.378600e+03,3055
 , , , , , , ,4.381500e+03,3129
 , , , , , , ,4.384500e+03,3168
 , , , , , , ,4.387400e+03,3086
 , , , , , , ,4.390400e+03,3313
 , , , , , , ,4.393400e+03,3255
 , , , , , , ,4.396300e+03,3187
 , , , , , , ,4.399300e+03,3222
 , , , , , , ,4.402200e+03,3076
 , , , , , , ,4.405200e+03,3103
 , , , , , , ,4.408100e+03,3149
 , , , , , , ,4.411100e+03,3253
 , , , , , , ,4414,3188
 , , , , , , ,4.416900e+03,3158
 , , , , , , ,4.419900e+03,3150
 , , , , , , ,4.422800e+03,3020
 , , , , , , ,4.425700e+03,3087
 , , , , , , ,4.428700e+03,2991
 , , , , , , ,4.431600e+03,3115
 , , , , , , ,4.434500e+03,3023
 , , , , , , ,4.437500e+03,3190
 , , , , , , ,4.440400e+03,3030
 , , , , , , ,4.443300e+03,3163
 , , , , , , ,4.446200e+03,3236
 , , , , , , ,4.449100e+03,3146
 , , , , , , ,4452,3023
