Wavenumber, Raw Data , Baseline Subtracted, Baseline , Fine Filter , Thresholded 
cm-1, counts, counts, counts, counts, counts
Data from RamanShift Node
Date: Thu Jan 23 12:06:25 GMT 2014
User: Ion2
Spectrometer: V532-0003
Autoset integration time: false
Trigger mode: 0
Integration Time (sec): 3.000000E1
Scans to average: 1
Nonlinearity correction enabled: false
Boxcar width: 0
Stray light correction enabled: false
XAxis mode: Wavelengths
Storing dark spectrum: false
Number of Pixels in Spectrum: 1024
>>>>>Begin Spectral Data<<<<<
9.963100e+02,2056,-3.023097e+01,2.086231e+03,-9.224454e+01,1.961199e+01,2.693531e-01,9.477600e+01,1419,Location of 2D,2.689596e+03
1.001700e+03,1944,-1.391426e+02,2.083143e+03,-1.285484e+02,8.500355e+00,2.734792e-01,1.008400e+02,1412,Scale of 2D,1.659675e+01
1007,2003,-7.712908e+01,2.080129e+03,-1.078772e+02,1.235226e+01,2.776395e-01,1.068900e+02,1499,Area of 2D,3.501777e+04
1.012400e+03,1976,-1.010825e+02,2.077082e+03,-1.077081e+02,5.543873e+00,2.819873e-01,1.129400e+02,1513,Height of 2D,6.716074e+02
1.017800e+03,1958,-1.160598e+02,2.074060e+03,-1.062814e+02,1.694948e+00,2.864491e-01,1.189800e+02,1558,Location of G,1.598069e+03
1.023100e+03,2034,-3.711629e+01,2.071116e+03,-1.038853e+02,2.926756e+00,2.909431e-01,1.250300e+02,1499,Scale of G,2.393806e+01
1.028400e+03,1815,-2.531958e+02,2.068196e+03,-1.066476e+02,1.148580e+00,2.955551e-01,1.310600e+02,1432,Area of G,9.749987e+03
1.033800e+03,2045,-2.024391e+01,2.065244e+03,-9.686972e+01,4.440580e-01,3.003799e-01,1.370900e+02,1374,Height of G,1.296478e+02
1.039100e+03,1940,-1.223698e+02,2.062370e+03,-7.398010e+01,-5.720850e-01,3.052435e-01,1.431200e+02,1518,Location of D,0
1.044500e+03,1963,-9.646511e+01,2.059465e+03,-6.382783e+01,-1.531000e+00,3.103343e-01,1.491400e+02,1410,Scale of D,0
1.049800e+03,2024,-3.263732e+01,2.056637e+03,-3.969119e+01,-3.082386e+00,3.154689e-01,1.551600e+02,1408,Area of D,0
1.055100e+03,2098,4.416759e+01,2.053832e+03,-3.472826e+01,-3.506578e+00,3.207455e-01,1.611700e+02,1373,Height of D,0
1.060400e+03,2085,3.394962e+01,2.051050e+03,-6.074031e+00,-3.718953e+00,3.261696e-01,1.671800e+02,1450,Location of D+Dpp,0
1.065800e+03,1964,-8.423934e+01,2.048239e+03,-1.187900e+01,-3.327253e+00,3.318538e-01,1.731800e+02,1522,Scale of D+Dpp,0
1.071100e+03,2060,1.449660e+01,2.045503e+03,-3.727827e+01,-4.539188e-01,3.375936e-01,1.791800e+02,1604,Area of D+Dpp,0
1.076400e+03,2121,7.820975e+01,2.042790e+03,-2.598612e+01,-3.964863e-01,3.434993e-01,1.851700e+02,1388,Height of D+Dpp,0
1.081700e+03,1903,-1.370999e+02,2.040100e+03,-4.585966e+01,8.278803e-01,3.495775e-01,1.911600e+02,1461,Location of Dp,0
1087,1827,-2.104323e+02,2.037432e+03,-4.976342e+01,2.130207e+00,3.558352e-01,1.971400e+02,1355,Scale of Dp,0
1.092300e+03,2158,1.232126e+02,2.034787e+03,-6.268990e+01,3.322109e+00,3.622799e-01,2.031200e+02,1429,Area of Dp,0
1.097600e+03,1927,-1.051652e+02,2.032165e+03,-7.664593e+01,2.024423e+00,3.689194e-01,2.091000e+02,1555,Height of Dp,0
1.102900e+03,1918,-1.115656e+02,2.029566e+03,-8.033888e+01,3.298164e+00,3.757618e-01,2.150700e+02,1455,Location of D+Dp,0
1.108200e+03,1951,-7.598877e+01,2.026989e+03,-3.519727e+01,5.229320e-01,3.828158e-01,2.210300e+02,1414,Scale of D+Dp,0
1.113400e+03,2005,-1.948251e+01,2.024483e+03,-4.993537e+01,9.881243e-01,3.899513e-01,2.269900e+02,1404,Area of D+Dp,0
1.118700e+03,1859,-1.629505e+02,2.021950e+03,-4.484549e+01,-6.279364e-01,3.974519e-01,2.329500e+02,1362,Height of D+Dp,0
1124,2125,1.055590e+02,2.019441e+03,-4.577808e+01,4.133209e-02,4.051930e-01,2.389000e+02,1371,Ratio of G to 2D,5.180245e+00
1.129300e+03,2037,2.004592e+01,2.016954e+03,-1.487596e+01,-2.060826e+00,4.131850e-01,2.448500e+02,1414,Scale of D to G,0
1.134500e+03,1945,-6.953600e+01,2.014536e+03,-3.710118e+00,-4.444354e-01,4.212812e-01,2.507900e+02,1541,Ratio of D to 2D,0
1.139800e+03,1894,-1.180937e+02,2.012094e+03,1.114761e+01,-9.423218e-01,4.298047e-01,2.567300e+02,1453,No Layers,3
1.145100e+03,2150,1.403261e+02,2.009674e+03,-1.588048e+01,8.045041e-01,4.386150e-01,2.626600e+02,1530,Date of Analysis,240618
1.150300e+03,2066,5.867837e+01,2.007322e+03,-1.136568e+01,-9.952414e-01,4.475508e-01,2.685900e+02,1291
1.155600e+03,1946,-5.894633e+01,2.004946e+03,-1.900933e+01,9.026165e-01,4.569696e-01,2.745100e+02,1427
1.160800e+03,1919,-8.363764e+01,2.002638e+03,2.860436e+01,-1.566520e+00,4.665307e-01,2.804300e+02,1419
1166,2052,5.164950e+01,2.000351e+03,4.481613e+00,-1.247895e+00,4.764237e-01,2.863400e+02,1300
1.171300e+03,1875,-1.230415e+02,1.998042e+03,5.143286e-02,-2.982526e+00,4.868651e-01,2.922500e+02,1465
1.176500e+03,2211,2.152021e+02,1.995798e+03,1.673604e+01,-3.725328e+00,4.974782e-01,2.981600e+02,1518
1.181800e+03,1965,-2.853318e+01,1.993533e+03,3.811333e+01,-5.325076e+00,5.086901e-01,3.040600e+02,1345
1187,2019,2.766711e+01,1.991333e+03,2.818331e+01,-1.700686e+00,5.200971e-01,3.099600e+02,1467
1.192200e+03,2047,5.784595e+01,1.989154e+03,3.193982e+01,-1.773916e+00,5.319275e-01,3.158500e+02,1542
1.197400e+03,2053,6.600336e+01,1.986997e+03,-2.246229e+01,1.466812e+00,5.442030e-01,3.217400e+02,1459
1.202600e+03,1967,-1.786062e+01,1.984861e+03,-3.360629e+01,3.462634e+00,5.569469e-01,3.276200e+02,1385
1.207800e+03,1886,-9.674599e+01,1.982746e+03,-5.034316e+01,5.140099e+00,5.701838e-01,3.335000e+02,1450
1.213100e+03,1815,-1.656127e+02,1.980613e+03,-7.410144e+01,5.833893e+00,5.842101e-01,3.393700e+02,1472
1.218300e+03,1872,-1.065412e+02,1.978541e+03,-9.731517e+01,6.246192e+00,5.985250e-01,3.452400e+02,1553
1.223500e+03,1887,-8.949095e+01,1.976491e+03,-8.240737e+01,1.944388e+00,6.134184e-01,3.511000e+02,1524
1.228700e+03,1866,-1.084620e+02,1.974462e+03,-6.823514e+01,1.158788e-01,6.289225e-01,3.569600e+02,1577
1.233800e+03,1876,-9.649279e+01,1.972493e+03,-2.151848e+01,-2.100074e+00,6.447550e-01,3.628200e+02,1798
1239,2057,8.649401e+01,1.970506e+03,-3.251576e+00,-4.740658e+00,6.615734e-01,3.686700e+02,1653
1.244200e+03,1971,2.459593e+00,1.968540e+03,-5.868180e+00,-4.585480e+00,6.791132e-01,3.745100e+02,1807
1.249400e+03,2128,1.614040e+02,1.966596e+03,1.949413e+01,-3.744443e+00,6.974173e-01,3.803500e+02,2012
1.254600e+03,1986,2.132716e+01,1.964673e+03,2.112657e+01,-2.234311e+00,7.165314e-01,3.861900e+02,2114
1.259700e+03,1855,-1.078072e+02,1.962807e+03,-1.340997e+01,1.512681e+00,7.361126e-01,3.920200e+02,2129
1.264900e+03,2030,6.907413e+01,1.960926e+03,-3.382467e+01,3.500497e+00,7.569811e-01,3.978500e+02,2197
1.270100e+03,1874,-8.506568e+01,1.959066e+03,-5.054609e+01,2.434963e+00,7.788189e-01,4.036800e+02,2342
1.275200e+03,1802,-1.552618e+02,1.957262e+03,-7.557905e+01,4.226726e+00,8.012380e-01,4.094900e+02,2298
1.280400e+03,1815,-1.404433e+02,1.955443e+03,-4.791822e+01,2.671967e+00,8.251836e-01,4.153100e+02,2386
1.285600e+03,1998,4.435405e+01,1.953646e+03,-4.256398e+01,6.065895e-01,8.502988e-01,4.211200e+02,2479
1.290700e+03,1798,-1.539036e+02,1.951904e+03,-2.266384e+01,-6.789189e-01,8.761430e-01,4.269200e+02,2422
1.295800e+03,2036,8.581863e+01,1.950181e+03,1.050625e+01,-1.735993e+00,9.032682e-01,4.327300e+02,2247
1301,2055,1.065538e+02,1.948446e+03,1.636526e+01,-3.042055e+00,9.323350e-01,4.385200e+02,2231
1.306100e+03,2001,5.423525e+01,1.946765e+03,-7.372405e+00,-9.113679e-01,9.623218e-01,4.443100e+02,2364
1.311300e+03,2022,7.692892e+01,1.945071e+03,1.029825e+01,-1.200965e+00,9.945127e-01,4.501000e+02,2257
1.316400e+03,1844,-9.943029e+01,1.943430e+03,1.810208e+00,-4.134092e-01,1.027784e+00,4.558900e+02,2479
1.321500e+03,1820,-1.218096e+02,1.941810e+03,2.582875e+00,2.602636e-01,1.062863e+00,4.616600e+02,2326
1.326600e+03,1910,-3.020899e+01,1.940209e+03,3.763924e+00,-7.437034e-02,1.099884e+00,4.674400e+02,2296
1.331800e+03,1965,2.640235e+01,1.938598e+03,-7.079823e+00,-6.907549e-01,1.139784e+00,4.732100e+02,2450
1.336900e+03,2049,1.119625e+02,1.937038e+03,-4.229376e+00,1.826581e-01,1.181193e+00,4.789700e+02,2435
1342,1998,6.250259e+01,1.935497e+03,1.045814e+01,-3.436761e-01,1.225035e+00,4.847300e+02,2309
1.347100e+03,1935,1.022701e+00,1.933977e+03,1.341133e+01,1.094445e-01,1.271507e+00,4.904900e+02,2361
1.352200e+03,1853,-7.947716e+01,1.932477e+03,1.376865e+01,6.931996e-01,1.320826e+00,4.962400e+02,2443
1.357300e+03,1912,-1.899697e+01,1.930997e+03,-5.893974e+00,3.993812e-01,1.373230e+00,5.019900e+02,2511
1.362400e+03,1920,-9.536710e+00,1.929537e+03,-1.943367e+01,5.177074e-01,1.428984e+00,5.077300e+02,2244
1.367500e+03,1957,2.890364e+01,1.928096e+03,-1.342570e+01,1.019928e+00,1.488382e+00,5.134700e+02,2108
1.372600e+03,1901,-2.567590e+01,1.926676e+03,5.276735e+00,5.587845e-01,1.551752e+00,5.192100e+02,2189
1.377700e+03,1893,-3.227531e+01,1.925275e+03,1.038792e+01,4.486390e-01,1.619456e+00,5.249400e+02,2228
1.382700e+03,1967,4.307855e+01,1.923921e+03,8.765035e+00,1.056767e+00,1.690432e+00,5.306600e+02,2186
1.387800e+03,1974,5.143985e+01,1.922560e+03,1.483304e+01,-1.511232e-01,1.767967e+00,5.363800e+02,2156
1.392900e+03,1938,1.678135e+01,1.921219e+03,1.738496e+00,4.161834e-01,1.851199e+00,5.421000e+02,2170
1398,1899,-2.089693e+01,1.919897e+03,8.192195e+00,2.653325e-01,1.940702e+00,5.478100e+02,2173
1403,1990,7.137968e+01,1.918620e+03,2.220156e+01,-1.036650e+00,2.035162e+00,5.535200e+02,2206
1.408100e+03,1800,-1.173377e+02,1.917338e+03,2.018790e+01,-1.522104e+00,2.139078e+00,5.592200e+02,2115
1.413100e+03,1929,1.290058e+01,1.916099e+03,2.715468e+01,-1.848670e+00,2.249170e+00,5.649200e+02,2135
1.418200e+03,2056,1.411441e+02,1.914856e+03,5.338435e+01,-3.130140e+00,2.370770e+00,5.706200e+02,2140
1.423200e+03,1951,3.734421e+01,1.913656e+03,3.716960e+01,-1.954765e+00,2.500143e+00,5.763100e+02,1987
1.428300e+03,1978,6.554881e+01,1.912451e+03,5.193217e+01,-1.060728e+00,2.643678e+00,5.819900e+02,1866
1.433300e+03,2074,1.627107e+02,1.911289e+03,3.239000e+01,-1.232106e+00,2.797104e+00,5.876800e+02,2083
1.438400e+03,1868,-4.212354e+01,1.910124e+03,2.685563e+00,6.985633e-01,2.968171e+00,5.933500e+02,1962
1.443400e+03,1895,-1.399970e+01,1.909000e+03,1.153356e+01,4.617809e-01,3.151984e+00,5.990300e+02,2095
1.448400e+03,1784,-1.238947e+02,1.907895e+03,-1.521220e+01,1.123240e+00,3.353831e+00,6.046900e+02,2137
1.453500e+03,1840,-6.678690e+01,1.906787e+03,-5.976860e+00,3.722688e-01,3.580809e+00,6.103600e+02,1999
1.458500e+03,2005,9.928018e+01,1.905720e+03,-7.049360e+00,4.988702e-01,3.826912e+00,6.160200e+02,2049
1.463500e+03,1783,-1.216715e+02,1.904671e+03,-4.709291e+00,-1.672571e+00,4.099736e+00,6.216700e+02,2022
1.468500e+03,2131,2.273581e+02,1.903642e+03,-1.938807e+01,-3.093171e-01,4.403259e+00,6.273300e+02,1935
1.473500e+03,1853,-4.963104e+01,1.902631e+03,-1.523160e+01,-1.456273e+00,4.742217e+00,6.329700e+02,1995
1.478600e+03,1904,2.380784e+00,1.901619e+03,-3.166531e+01,-3.052690e-01,5.130348e+00,6.386200e+02,2066
1.483600e+03,1674,-2.266461e+02,1.900646e+03,-2.011776e+01,-1.305369e+00,5.559394e+00,6.442500e+02,1979
1.488600e+03,1862,-3.769164e+01,1.899692e+03,-4.958892e+01,9.640830e-01,6.044858e+00,6.498900e+02,1875
1.493600e+03,1883,-1.575581e+01,1.898756e+03,-4.136697e+01,8.417795e-01,6.596908e+00,6.555200e+02,2024
1.498600e+03,1857,-4.083861e+01,1.897839e+03,-8.116644e+01,3.515385e+00,7.228059e+00,6.611400e+02,2127
1.503600e+03,1918,2.106000e+01,1.896940e+03,-7.341304e+01,3.984907e+00,7.953834e+00,6.667600e+02,1826
1.508500e+03,1904,7.922606e+00,1.896077e+03,-7.110673e+01,4.813619e+00,8.775584e+00,6.723800e+02,2077
1.513500e+03,1619,-2.762156e+02,1.895216e+03,-8.596179e+01,5.287228e+00,9.750877e+00,6.779900e+02,2180
1.518500e+03,1722,-1.723723e+02,1.894372e+03,-1.001233e+02,5.768990e+00,1.089519e+01,6.836000e+02,2075
1.523500e+03,1872,-2.154748e+01,1.893547e+03,-9.230316e+01,3.005721e+00,1.224839e+01,6.892000e+02,1990
1.528500e+03,1773,-1.197412e+02,1.892741e+03,-6.592966e+01,1.577197e+00,1.386225e+01,6.948000e+02,1916
1.533400e+03,1752,-1.399690e+02,1.891969e+03,-1.400310e+01,-2.227473e-01,1.576197e+01,7.004000e+02,2174
1.538400e+03,1967,7.580073e+01,1.891199e+03,1.176225e+01,-2.047229e+00,1.811305e+01,7.059900e+02,2094
1.543300e+03,2083,1.925371e+02,1.890463e+03,1.736444e+01,-3.055345e+00,2.093526e+01,7.115800e+02,2047
1.548300e+03,1977,8.727036e+01,1.889730e+03,5.637694e+01,-4.071617e+00,2.450014e+01,7.171600e+02,1938
1.553300e+03,1897,7.985168e+00,1.889015e+03,7.722870e+01,-2.904265e+00,2.896881e+01,7.227400e+02,2035
1.558200e+03,1906,1.766785e+01,1.888332e+03,8.006042e+01,-1.251087e+00,3.449806e+01,7.283100e+02,1906
1.563200e+03,2041,1.533463e+02,1.887654e+03,7.444754e+01,-1.344902e+00,4.167568e+01,7.338800e+02,1911
1.568100e+03,1893,5.993342e+00,1.887007e+03,6.667192e+01,-1.157139e+00,5.064551e+01,7.394500e+02,2037
1573,1982,9.562281e+01,1.886377e+03,8.244795e+01,-5.202921e-01,6.198171e+01,7.450100e+02,2007
1578,2039,1.532470e+02,1.885753e+03,8.777933e+01,-1.091702e+00,7.628438e+01,7.505700e+02,2104
1.582900e+03,1918,3.284097e+01,1.885159e+03,8.623394e+01,-8.427096e-01,9.265407e+01,7.561200e+02,2140
1.587800e+03,2003,1.184174e+02,1.884583e+03,1.159566e+02,-1.658922e+00,1.096495e+02,7.616700e+02,1984
1.592800e+03,1939,5.498752e+01,1.884012e+03,1.169474e+02,-2.254786e+00,1.238104e+02,7.672100e+02,2045
1.597700e+03,2026,1.425286e+02,1.883471e+03,9.806165e+01,-1.356780e+00,1.297721e+02,7.727500e+02,2036
1.602600e+03,2097,2.140521e+02,1.882948e+03,9.658695e+01,-8.750095e-01,1.253203e+02,7.782900e+02,1942
1.607500e+03,1985,1.025582e+02,1.882442e+03,9.409473e+01,-1.764725e+00,1.123864e+02,7.838200e+02,2180
1.612400e+03,1903,2.104683e+01,1.881953e+03,8.829769e+01,-4.544214e-01,9.560085e+01,7.893500e+02,1978
1.617300e+03,1904,2.251804e+01,1.881482e+03,9.362607e+01,-4.992216e-01,7.895547e+01,7.948700e+02,2007
1.622200e+03,1982,1.009718e+02,1.881028e+03,8.150848e+01,-1.086931e+00,6.446611e+01,8.003900e+02,2071
1.627100e+03,1895,1.440824e+01,1.880592e+03,6.794492e+01,-1.213436e+00,5.263657e+01,8.059000e+02,2068
1632,2060,1.798273e+02,1.880173e+03,6.222113e+01,-5.246889e-03,4.324984e+01,8.114100e+02,2096
1.636900e+03,2009,1.292289e+02,1.879771e+03,6.647998e+01,-1.236069e-01,3.586936e+01,8.169200e+02,2102
1.641800e+03,1887,7.613273e+00,1.879387e+03,3.972149e+01,1.370262e+00,3.005962e+01,8.224200e+02,1969
1.646700e+03,1860,-1.901971e+01,1.879020e+03,3.794479e+01,1.578471e+00,2.545673e+01,8.279200e+02,1817
1.651600e+03,1931,5.233000e+01,1.878670e+03,2.715085e+01,1.545871e+00,2.177708e+01,8.334100e+02,2184
1.656500e+03,1792,-8.633756e+01,1.878338e+03,7.625381e+00,2.145924e+00,1.880595e+01,8.389000e+02,2190
1.661300e+03,1880,1.971351e+00,1.878029e+03,-4.632327e+00,2.999069e+00,1.642721e+01,8.443900e+02,2014
1.666200e+03,1982,1.042696e+02,1.877730e+03,7.664250e+00,1.039975e+00,1.442286e+01,8.498700e+02,2039
1.671100e+03,1870,-7.449317e+00,1.877449e+03,1.180084e+01,9.828685e-01,1.275624e+01,8.553500e+02,2193
1.675900e+03,1799,-7.819068e+01,1.877191e+03,2.120545e+01,2.604988e-01,1.138429e+01,8.608200e+02,2140
1.680800e+03,1944,6.705632e+01,1.876944e+03,1.930819e+01,-6.129242e-01,1.019762e+01,8.662900e+02,2024
1.685700e+03,1958,8.128616e+01,1.876714e+03,8.679088e+00,-1.649618e+00,9.186218e+00,8.717600e+02,2009
1.690500e+03,1856,-2.050532e+01,1.876505e+03,2.817584e+01,-2.106709e+00,8.334477e+00,8.772200e+02,2129
1.695400e+03,1865,-1.130942e+01,1.876309e+03,4.565595e+01,-1.535229e+00,7.582063e+00,8.826700e+02,2195
1.700200e+03,1906,2.986588e+01,1.876134e+03,2.554731e+01,-7.188575e-01,6.940461e+00,8.881300e+02,2281
1.705100e+03,2005,1.290279e+02,1.875972e+03,2.756464e+01,-1.780005e+00,6.367086e+00,8.935700e+02,2313
1.709900e+03,1920,4.417009e+01,1.875830e+03,1.185115e+01,-9.513819e-01,5.872874e+00,8.990200e+02,2166
1.714700e+03,1802,-7.370411e+01,1.875704e+03,1.840630e+01,-5.472333e-01,5.435365e+00,9.044600e+02,2288
1.719600e+03,1971,9.540745e+01,1.875593e+03,1.230724e+00,-3.553310e-01,5.038716e+00,9.098900e+02,2309
1.724400e+03,1745,-1.304998e+02,1.875500e+03,-2.767592e+01,5.630874e-01,4.692217e+00,9.153300e+02,2233
1.729200e+03,1910,3.457667e+01,1.875423e+03,7.686741e+00,-6.368615e-01,4.381662e+00,9.207500e+02,2249
1734,1785,-9.036318e+01,1.875363e+03,-8.966999e+00,-2.980349e-01,4.102329e+00,9.261800e+02,2425
1.738900e+03,1802,-7.331857e+01,1.875319e+03,-3.563742e+01,1.689775e+00,3.845255e+00,9.316000e+02,2265
1.743700e+03,2167,2.917087e+02,1.875291e+03,-2.889558e+01,6.735045e-01,3.617510e+00,9.370100e+02,2294
1.748500e+03,1685,-1.902803e+02,1.875280e+03,-5.659861e+01,6.449837e-01,3.410720e+00,9.424200e+02,2146
1.753300e+03,1784,-9.128550e+01,1.875285e+03,-4.917507e+01,2.257279e+00,3.222439e+00,9.478300e+02,2254
1.758100e+03,1792,-8.330692e+01,1.875307e+03,-4.248217e+01,1.147145e+00,3.050568e+00,9.532300e+02,2081
1.762900e+03,1716,-1.593445e+02,1.875345e+03,-7.780547e+01,4.247464e-01,2.893295e+00,9.586300e+02,2007
1.767700e+03,1837,-3.839835e+01,1.875398e+03,-6.014495e+01,8.492865e-01,2.749050e+00,9.640300e+02,1986
1.772500e+03,1849,-2.646831e+01,1.875468e+03,-5.150022e+01,-2.363787e-01,2.616468e+00,9.694200e+02,2277
1.777300e+03,1920,4.444559e+01,1.875554e+03,-5.572872e+01,1.118771e+00,2.494360e+00,9.748000e+02,2188
1.782100e+03,1809,-6.665664e+01,1.875657e+03,-4.883044e+01,1.126984e+00,2.381680e+00,9.801900e+02,2144
1.786800e+03,1845,-3.077234e+01,1.875772e+03,-5.566251e+01,1.331116e+00,2.279603e+00,9.855600e+02,2015
1.791600e+03,1763,-1.129064e+02,1.875906e+03,-5.351005e+01,1.449526e+00,2.182989e+00,9.909400e+02,2094
1.796400e+03,1765,-1.110566e+02,1.876057e+03,-7.880215e+01,2.829161e+00,2.093381e+00,9.963100e+02,2056
1.801200e+03,1790,-8.622282e+01,1.876223e+03,-5.725306e+01,2.251507e-01,2.010143e+00,1.001700e+03,1944
1.805900e+03,1865,-1.140112e+01,1.876401e+03,-5.200530e+01,8.642474e-02,1.934270e+00,1007,2003
1.810700e+03,1744,-1.325991e+02,1.876599e+03,-2.305917e+01,-1.284954e+00,1.862038e+00,1.012400e+03,1976
1.815500e+03,1961,8.418698e+01,1.876813e+03,-2.041387e+01,-1.268585e+00,1.794671e+00,1.017800e+03,1958
1.820200e+03,1883,5.961998e+00,1.877038e+03,-1.007013e+01,-3.313407e+00,1.733032e+00,1.023100e+03,2034
1825,1967,8.971642e+01,1.877284e+03,1.152625e-01,-2.003154e+00,1.674143e+00,1.028400e+03,1815
1.829700e+03,1785,-9.253949e+01,1.877539e+03,1.971341e+01,-2.007150e+00,1.620146e+00,1.033800e+03,2045
1.834500e+03,1864,-1.381662e+01,1.877817e+03,-1.670324e+01,5.561453e-01,1.568455e+00,1.039100e+03,1940
1.839200e+03,1938,5.989661e+01,1.878103e+03,-2.056386e+01,4.133304e-01,1.520969e+00,1.044500e+03,1963
1844,1883,4.587994e+00,1.878412e+03,-2.244019e+01,1.160318e+00,1.475431e+00,1.049800e+03,2024
1.848700e+03,1708,-1.707296e+02,1.878730e+03,-1.118904e+01,1.050163e+00,1.433528e+00,1.055100e+03,2098
1.853400e+03,1858,-2.106236e+01,1.879062e+03,-2.752381e+01,2.344028e+00,1.394098e+00,1.060400e+03,2085
1.858200e+03,1956,7.658209e+01,1.879418e+03,-2.944530e+01,3.848865e-01,1.356202e+00,1.065800e+03,1964
1.862900e+03,1866,-1.378139e+01,1.879781e+03,-1.909541e+01,-7.702006e-01,1.321263e+00,1.071100e+03,2060
1.867600e+03,1752,-1.281600e+02,1.880160e+03,3.380827e+00,-1.484438e+00,1.288326e+00,1.076400e+03,2121
1.872300e+03,1927,4.644618e+01,1.880554e+03,3.127536e+00,-1.247607e+00,1.257260e+00,1.081700e+03,1903
1877,1958,7.703726e+01,1.880963e+03,7.172494e-01,-2.537312e+00,1.227948e+00,1087,1827
1.881800e+03,1868,-1.339595e+01,1.881396e+03,-3.993910e+00,-2.018853e+00,1.199709e+00,1.092300e+03,2158
1.886500e+03,1859,-2.283540e+01,1.881835e+03,1.570836e+01,-1.594243e+00,1.173617e+00,1.097600e+03,1927
1.891200e+03,1942,5.971008e+01,1.882290e+03,4.109791e+00,-7.697050e-01,1.148975e+00,1.102900e+03,1918
1.895900e+03,1836,-4.675951e+01,1.882760e+03,-2.236103e+01,1.283085e-01,1.125698e+00,1.108200e+03,1951
1.900600e+03,1893,9.755858e+00,1.883244e+03,-2.541706e+01,2.385602e-01,1.103708e+00,1.113400e+03,2005
1.905300e+03,1849,-3.474381e+01,1.883744e+03,-3.334358e+01,6.589770e-01,1.082933e+00,1.118700e+03,1859
1910,1776,-1.082585e+02,1.884258e+03,-4.485650e+01,1.850821e+00,1.063307e+00,1124,2125
1.914700e+03,1850,-3.478816e+01,1.884788e+03,-4.109866e+01,1.250827e+00,1.044767e+00,1.129300e+03,2037
1.919300e+03,1807,-7.832107e+01,1.885321e+03,-4.335576e+01,1.156961e+00,1.027618e+00,1.134500e+03,1945
1924,1865,-2.088037e+01,1.885880e+03,-5.162777e+01,1.528436e+00,1.011064e+00,1.139800e+03,1894
1.928700e+03,1866,-2.045462e+01,1.886455e+03,-5.434135e+01,1.189702e+00,9.954383e-01,1.145100e+03,2150
1.933400e+03,1881,-6.043800e+00,1.887044e+03,-6.264121e+01,1.059130e+00,9.806957e-01,1.150300e+03,2066
1.938100e+03,1795,-9.264790e+01,1.887648e+03,-4.738414e+01,1.655089e+00,9.667938e-01,1.155600e+03,1946
1.942700e+03,1761,-1.272536e+02,1.888254e+03,-3.914188e+01,6.265641e-01,9.539641e-01,1.160800e+03,1919
1.947400e+03,1796,-9.288713e+01,1.888887e+03,-5.305728e+01,1.900080e+00,9.416129e-01,1166,2052
1952,1918,2.847839e+01,1.889522e+03,-3.484246e+01,5.368551e-01,9.302333e-01,1.171300e+03,1875
1.956700e+03,1927,3.681543e+01,1.890185e+03,-3.535664e+01,1.247214e-01,9.192996e-01,1.176500e+03,2211
1.961400e+03,1773,-1.178624e+02,1.890862e+03,-2.674236e+01,-2.180235e-01,9.090374e-01,1.181800e+03,1965
1966,2013,1.214599e+02,1.891540e+03,-1.985704e+01,1.182096e+00,8.996175e-01,1187,2019
1.970700e+03,1796,-9.624719e+01,1.892247e+03,-1.414648e+00,-1.287245e+00,8.906052e-01,1.192200e+03,2047
1.975300e+03,1826,-6.695356e+01,1.892954e+03,-8.698844e+00,5.565193e-02,8.823615e-01,1.197400e+03,2053
1980,1849,-4.468990e+01,1.893690e+03,2.971666e+01,-1.434098e+00,8.745063e-01,1.202600e+03,1967
1.984600e+03,2052,1.575751e+02,1.894425e+03,1.154647e+01,-5.320110e-01,8.673541e-01,1.207800e+03,1886
1.989200e+03,1881,-1.417394e+01,1.895174e+03,1.179277e+01,-7.892434e-01,8.607142e-01,1.213100e+03,1815
1.993900e+03,2047,1.510461e+02,1.895954e+03,1.159631e+01,5.535963e-01,8.544416e-01,1.218300e+03,1872
1.998500e+03,1891,-5.731427e+00,1.896731e+03,5.195937e+01,-1.421939e+00,8.487876e-01,1.223500e+03,1887
2.003100e+03,1803,-9.452306e+01,1.897523e+03,3.630571e+01,-1.974035e-01,8.435989e-01,1.228700e+03,1866
2.007700e+03,1830,-6.832876e+01,1.898329e+03,3.963790e+01,-1.021848e+00,8.388622e-01,1.233800e+03,1876
2.012300e+03,2137,2.378515e+02,1.899148e+03,2.667264e+01,-1.482947e+00,8.345653e-01,1239,2057
2017,1948,4.799948e+01,1.900001e+03,3.126475e+01,-2.242005e+00,8.306172e-01,1.244200e+03,1971
2.021600e+03,1910,9.151413e+00,1.900849e+03,5.598566e+01,-1.629568e+00,8.271753e-01,1.249400e+03,2128
2.026200e+03,1962,6.028935e+01,1.901711e+03,6.869254e+01,-1.543808e+00,8.241411e-01,1.254600e+03,1986
2.030800e+03,1929,2.641332e+01,1.902587e+03,5.052825e+01,-6.376406e-01,8.215059e-01,1.259700e+03,1855
2.035400e+03,1982,7.852332e+01,1.903477e+03,2.635257e+01,-1.641263e-01,8.192614e-01,1.264900e+03,2030
2040,1925,2.061938e+01,1.904381e+03,2.359151e+01,-4.897621e-03,8.174003e-01,1.270100e+03,1874
2.044600e+03,2016,1.107015e+02,1.905298e+03,1.896239e+01,6.603762e-01,8.159157e-01,1.275200e+03,1802
2.049200e+03,1785,-1.212303e+02,1.906230e+03,9.890814e+00,1.088914e+00,8.148015e-01,1.280400e+03,1815
2.053800e+03,1897,-1.017598e+01,1.907176e+03,-2.480330e+00,6.521446e-01,8.140523e-01,1.285600e+03,1998
2.058300e+03,1936,2.788545e+01,1.908115e+03,4.706113e+00,-4.539333e-01,8.136679e-01,1.290700e+03,1798
2.062900e+03,1872,-3.708769e+01,1.909088e+03,1.216444e+01,-6.824602e-01,8.136270e-01,1.295800e+03,2036
2.067500e+03,1902,-8.074686e+00,1.910075e+03,1.289789e+01,4.002707e-02,8.139383e-01,1301,2055
2.072100e+03,1982,7.092448e+01,1.911076e+03,2.046161e+00,8.088169e-02,8.145986e-01,1.306100e+03,2001
2.076700e+03,2075,1.629098e+02,1.912090e+03,-1.639044e+01,8.115321e-01,8.156054e-01,1.311300e+03,2022
2.081200e+03,1797,-1.160961e+02,1.913096e+03,-1.598362e+01,1.644229e+00,8.169235e-01,1.316400e+03,1844
2.085800e+03,1828,-8.613811e+01,1.914138e+03,-1.801908e+01,2.554477e+00,8.186099e-01,1.321500e+03,1820
2.090300e+03,1814,-1.011707e+02,1.915171e+03,-2.463623e+01,1.938189e+00,8.205902e-01,1.326600e+03,1910
2.094900e+03,1882,-3.423995e+01,1.916240e+03,-3.326702e+01,1.158742e+00,8.229519e-01,1.331800e+03,1965
2.099500e+03,1895,-2.232290e+01,1.917323e+03,-2.105398e+01,-6.166212e-01,8.256545e-01,1.336900e+03,2049
2104,1943,2.460441e+01,1.918396e+03,-2.099741e+01,-9.512712e-01,8.286287e-01,1342,1998
2.108600e+03,2022,1.024943e+02,1.919506e+03,-3.525563e+00,-2.314493e+00,8.320073e-01,1.347100e+03,1935
2.113100e+03,1890,-3.060491e+01,1.920605e+03,1.222206e+01,-2.636904e+00,8.356448e-01,1.352200e+03,1853
2.117700e+03,1836,-8.574210e+01,1.921742e+03,2.595617e+01,-2.245024e+00,8.397046e-01,1.357300e+03,1912
2.122200e+03,1944,2.113220e+01,1.922868e+03,9.248504e+00,-2.327357e-01,8.440123e-01,1.362400e+03,1920
2.126700e+03,2000,7.599344e+01,1.924007e+03,-1.575460e+01,3.631268e-01,8.486551e-01,1.367500e+03,1957
2.131300e+03,1999,7.381587e+01,1.925184e+03,-2.977085e+01,2.767151e+00,8.537505e-01,1.372600e+03,1901
2.135800e+03,1834,-9.234928e+01,1.926349e+03,-2.608622e+01,3.502001e+00,8.590805e-01,1.377700e+03,1893
2.140300e+03,1855,-7.252745e+01,1.927527e+03,-4.055756e+01,4.440819e+00,8.647560e-01,1.382700e+03,1967
2.144800e+03,1800,-1.287186e+02,1.928719e+03,-4.618485e+01,3.077597e+00,8.707815e-01,1.387800e+03,1974
2.149400e+03,1870,-5.994972e+01,1.929950e+03,-3.510726e+01,9.102870e-01,8.773076e-01,1.392900e+03,1938
2.153900e+03,1851,-8.016717e+01,1.931167e+03,-7.614113e+00,-1.926288e+00,8.840561e-01,1398,1899
2.158400e+03,1969,3.660241e+01,1.932398e+03,-8.133977e+00,-1.526245e+00,8.911706e-01,1403,1990
2.162900e+03,2085,1.513590e+02,1.933641e+03,3.004745e+01,-3.983346e+00,8.986576e-01,1.408100e+03,1800
2.167400e+03,2035,1.001027e+02,1.934897e+03,3.807688e+01,-3.885454e+00,9.065240e-01,1.413100e+03,1929
2.171900e+03,1860,-7.616650e+01,1.936167e+03,5.380768e+01,-3.171131e+00,9.147770e-01,1.418200e+03,2056
2.176400e+03,2076,1.385514e+02,1.937449e+03,4.466842e+01,-1.375171e+00,9.234247e-01,1.423200e+03,1951
2.180900e+03,1935,-3.743680e+00,1.938744e+03,4.373416e+00,-3.343118e-01,9.324756e-01,1.428300e+03,1978
2.185400e+03,1970,2.994840e+01,1.940052e+03,-1.521589e+01,2.163575e+00,9.419388e-01,1.433300e+03,2074
2.189900e+03,1914,-2.737238e+01,1.941372e+03,2.610543e+00,1.077897e+00,9.518240e-01,1.438400e+03,1868
2.194400e+03,1812,-1.307060e+02,1.942706e+03,-1.500440e+01,2.020790e+00,9.621417e-01,1.443400e+03,1895
2.198800e+03,1907,-3.702243e+01,1.944022e+03,-7.060717e+00,7.677712e-01,9.726588e-01,1.448400e+03,1784
2.203300e+03,1994,4.861856e+01,1.945381e+03,-1.770124e+01,-4.281052e-01,9.838648e-01,1.453500e+03,1840
2.207800e+03,1962,1.524674e+01,1.946753e+03,-1.106432e+01,-1.668885e+00,9.955382e-01,1.458500e+03,2005
2.212300e+03,2000,5.186212e+01,1.948138e+03,3.417022e+00,-9.217730e-01,1.007692e+00,1.463500e+03,1783
2.216800e+03,1905,-4.453527e+01,1.949535e+03,1.545738e+01,-1.231941e+00,1.020341e+00,1.468500e+03,2131
2.221200e+03,1970,1.908604e+01,1.950914e+03,-4.800660e+00,5.803453e-01,1.033200e+00,1.473500e+03,1853
2.225700e+03,1923,-2.933659e+01,1.952337e+03,-1.578566e+01,1.009099e+00,1.046871e+00,1.478600e+03,1904
2.230100e+03,2001,4.726008e+01,1.953740e+03,-3.592147e+01,1.968319e+00,1.060762e+00,1.483600e+03,1674
2.234600e+03,1862,-9.318773e+01,1.955188e+03,-3.364132e+01,1.601013e+00,1.075520e+00,1.488600e+03,1862
2.239100e+03,1895,-6.164825e+01,1.956648e+03,-3.880204e+01,1.568540e+00,1.090855e+00,1.493600e+03,1883
2.243500e+03,1869,-8.908858e+01,1.958089e+03,-3.625624e+01,5.684515e-01,1.106427e+00,1.498600e+03,1857
2248,1931,-2.857419e+01,1.959574e+03,-2.844182e+01,-1.031648e+00,1.122962e+00,1.503600e+03,1918
2.252400e+03,1944,-1.703903e+01,1.961039e+03,-1.334933e+01,-2.276511e+00,1.139747e+00,1.508500e+03,1904
2.256800e+03,1951,-1.151597e+01,1.962516e+03,3.592740e+00,-2.382874e+00,1.157165e+00,1.513500e+03,1619
2.261300e+03,2066,1.019610e+02,1.964039e+03,5.231963e+00,-2.207323e+00,1.175656e+00,1.518500e+03,1722
2.265700e+03,1978,1.245967e+01,1.965540e+03,-1.727912e+01,-1.501166e+00,1.194424e+00,1.523500e+03,1872
2.270100e+03,2024,5.694625e+01,1.967054e+03,-2.780234e+01,1.722080e-01,1.213898e+00,1.528500e+03,1773
2.274600e+03,1891,-7.761402e+01,1.968614e+03,-2.490911e+01,8.212226e-01,1.234572e+00,1.533400e+03,1752
2279,1784,-1.861518e+02,1.970152e+03,-4.517111e+01,2.743994e+00,1.255557e+00,1.538400e+03,1967
2.283400e+03,1881,-9.070156e+01,1.971702e+03,-5.187378e+01,3.184851e+00,1.277334e+00,1.543300e+03,2083
2.287800e+03,1982,8.736667e+00,1.973263e+03,-6.344567e+01,3.115639e+00,1.299935e+00,1.548300e+03,1977
2.292300e+03,1935,-3.987300e+01,1.974873e+03,-6.102465e+01,2.091341e+00,1.323937e+00,1.553300e+03,1897
2.296700e+03,1942,-3.445901e+01,1.976459e+03,-5.847279e+01,2.850719e+00,1.348311e+00,1.558200e+03,1906
2.301100e+03,1954,-2.405698e+01,1.978057e+03,-3.850436e+01,1.144636e+00,1.373617e+00,1.563200e+03,2041
2.305500e+03,1919,-6.066690e+01,1.979667e+03,-3.469076e+01,2.671253e-01,1.399897e+00,1.568100e+03,1893
2.309900e+03,1813,-1.682887e+02,1.981289e+03,-1.616973e+01,-9.656343e-01,1.427192e+00,1573,1982
2.314300e+03,2032,4.907748e+01,1.982923e+03,-6.660616e+00,-1.226819e+00,1.455548e+00,1578,2039
2.318700e+03,2020,3.543181e+01,1.984568e+03,4.408021e+00,-2.524738e+00,1.485013e+00,1.582900e+03,1918
2.323100e+03,2076,8.977424e+01,1.986226e+03,1.470281e+00,-1.067871e+00,1.515639e+00,1.587800e+03,2003
2.327500e+03,2020,3.210479e+01,1.987895e+03,3.152070e+01,-9.618595e-01,1.547478e+00,1.592800e+03,1939
2.331900e+03,2043,5.342348e+01,1.989577e+03,3.055929e+01,-2.026418e-01,1.580590e+00,1.597700e+03,2026
2.336200e+03,1910,-8.123108e+01,1.991231e+03,1.987178e+01,1.042296e+00,1.614237e+00,1.602600e+03,2097
2.340600e+03,2035,4.206419e+01,1.992936e+03,1.788676e+01,9.525392e-01,1.650048e+00,1.607500e+03,1985
2345,2037,4.234762e+01,1.994652e+03,1.289566e+01,9.037588e-01,1.687326e+00,1.612400e+03,1903
2.349400e+03,1957,-3.938075e+01,1.996381e+03,6.035676e+00,1.511956e+00,1.726143e+00,1.617300e+03,1904
2.353800e+03,2074,7.587908e+01,1.998121e+03,3.315846e+01,7.204834e-01,1.766580e+00,1.622200e+03,1982
2.358100e+03,1997,-2.832933e+00,1.999833e+03,5.241817e+01,-1.797845e+00,1.807743e+00,1.627100e+03,1895
2.362500e+03,2007,5.403604e+00,2.001596e+03,5.752332e+01,-1.214132e+00,1.851635e+00,1632,2060
2.366900e+03,2112,1.086284e+02,2.003372e+03,7.590841e+01,-3.430425e+00,1.897413e+00,1.636900e+03,2009
2.371200e+03,2182,1.768822e+02,2.005118e+03,5.285329e+01,-2.960827e+00,1.944073e+00,1.641800e+03,1887
2.375600e+03,2085,7.808372e+01,2.006916e+03,7.621539e+01,-3.483573e+00,1.993891e+00,1.646700e+03,1860
2.379900e+03,2098,8.931484e+01,2.008685e+03,7.985160e+01,-1.642718e+00,2.044716e+00,1.651600e+03,1931
2.384300e+03,1925,-8.550675e+01,2.010507e+03,8.533941e+01,-1.851007e+00,2.099035e+00,1.656500e+03,1792
2.388600e+03,2173,1.607018e+02,2.012298e+03,4.553022e+01,1.091883e+00,2.154507e+00,1.661300e+03,1880
2393,2045,3.085707e+01,2.014143e+03,4.999522e+01,6.511051e-01,2.213855e+00,1.666200e+03,1982
2.397300e+03,2163,1.470430e+02,2.015957e+03,1.916326e+01,3.704383e+00,2.274530e+00,1.671100e+03,1870
2.401600e+03,1916,-1.017821e+02,2.017782e+03,2.304027e+01,3.014456e+00,2.338008e+00,1.675900e+03,1799
2406,2129,1.093387e+02,2.019661e+03,6.471291e+00,3.557516e+00,2.406040e+00,1.680800e+03,1944
2.410300e+03,1895,-1.265089e+02,2.021509e+03,1.546853e+01,1.602447e+00,2.475718e+00,1.685700e+03,1958
2.414600e+03,1965,-5.836765e+01,2.023368e+03,1.302604e+01,4.757674e-01,2.548749e+00,1.690500e+03,1856
2419,2070,4.471891e+01,2.025281e+03,2.700097e+01,-1.765011e+00,2.627172e+00,1.695400e+03,1865
2.423300e+03,2121,9.383777e+01,2.027162e+03,4.297088e+01,-2.507835e+00,2.707654e+00,1.700200e+03,1906
2.427600e+03,2159,1.299456e+02,2.029054e+03,7.907255e+01,-4.332463e+00,2.792185e+00,1.705100e+03,2005
2.431900e+03,2027,-3.957650e+00,2.030958e+03,6.416315e+01,-3.026308e+00,2.881033e+00,1.709900e+03,1920
2.436200e+03,2254,2.211281e+02,2.032872e+03,5.867100e+01,-2.213838e+00,2.974490e+00,1.714700e+03,1802
2.440500e+03,2161,1.262028e+02,2.034797e+03,5.302494e+01,-2.372984e+00,3.072874e+00,1.719600e+03,1971
2.444800e+03,1874,-1.627335e+02,2.036733e+03,2.265356e+01,2.192603e-01,3.176529e+00,1.724400e+03,1745
2.449200e+03,2045,6.273856e+00,2.038726e+03,2.513489e+01,1.717252e+00,3.288443e+00,1.729200e+03,1910
2.453500e+03,2095,5.431536e+01,2.040685e+03,-3.680475e+00,1.447896e+00,3.403949e+00,1734,1785
2.457800e+03,1960,-8.265411e+01,2.042654e+03,-2.036394e+01,1.590593e+00,3.525972e+00,1.738900e+03,1802
2462,2058,1.341166e+01,2.044588e+03,-4.201223e+00,2.166141e+00,3.651918e+00,1.743700e+03,2167
2.466300e+03,2066,1.942056e+01,2.046579e+03,-9.185810e+00,1.080084e+00,3.788313e+00,1.748500e+03,1685
2.470600e+03,2058,9.418531e+00,2.048581e+03,-3.189557e+01,1.912970e+00,3.932833e+00,1.753300e+03,1784
2.474900e+03,2001,-4.959441e+01,2.050594e+03,-1.632369e+01,5.822018e-01,4.086126e+00,1.758100e+03,1792
2.479200e+03,2024,-2.861825e+01,2.052618e+03,-1.419780e+01,-1.318491e-01,4.248909e+00,1.762900e+03,1716
2.483500e+03,1950,-1.046530e+02,2.054653e+03,-2.136848e+01,1.268188e+00,4.421972e+00,1.767700e+03,1837
2.487700e+03,2083,2.634910e+01,2.056651e+03,-3.255000e+01,1.689023e+00,4.601771e+00,1.772500e+03,1849
2492,2087,2.829288e+01,2.058707e+03,-1.330682e+01,-4.992128e-02,4.797818e+00,1.777300e+03,1920
2.496300e+03,2030,-3.077419e+01,2.060774e+03,-1.036013e+01,4.239742e-01,5.007038e+00,1.782100e+03,1809
2.500600e+03,1994,-6.885211e+01,2.062852e+03,-4.274325e+00,1.554222e+00,5.230629e+00,1.786800e+03,1845
2.504800e+03,2150,8.510785e+01,2.064892e+03,-1.363462e+01,7.216052e-01,5.464169e+00,1.791600e+03,1763
2.509100e+03,2059,-7.991448e+00,2.066991e+03,-3.099857e+01,5.783841e-01,5.720243e+00,1.796400e+03,1765
2.513300e+03,2007,-6.205236e+01,2.069052e+03,1.391251e+01,-7.358702e-01,5.988526e+00,1.801200e+03,1790
2.517600e+03,2032,-3.917300e+01,2.071173e+03,2.539150e+01,-7.648148e-01,6.283634e+00,1.805900e+03,1865
2.521800e+03,1980,-9.325473e+01,2.073255e+03,1.256719e+01,-1.009275e+00,6.593844e+00,1.810700e+03,1744
2.526100e+03,2359,2.836033e+02,2.075397e+03,7.168029e+00,-1.111479e+00,6.936268e+00,1.815500e+03,1961
2.530300e+03,2089,1.150084e+01,2.077499e+03,3.332266e+01,-2.906951e+00,7.297543e+00,1.820200e+03,1883
2.534600e+03,2075,-4.662336e+00,2.079662e+03,4.690254e+01,-9.354910e-01,7.697879e+00,1825,1967
2.538800e+03,2036,-4.578556e+01,2.081786e+03,4.718637e+01,-3.189356e-01,8.121975e+00,1.829700e+03,1785
2.543100e+03,2205,1.210301e+02,2.083970e+03,1.403106e+01,3.586514e-01,8.593944e+00,1.834500e+03,1864
2.547300e+03,2142,5.588617e+01,2.086114e+03,1.615114e+01,-3.390720e-01,9.096191e+00,1.839200e+03,1938
2.551500e+03,1997,-9.126793e+01,2.088268e+03,1.483955e+01,1.305441e+00,9.644163e+00,1844,1883
2.555800e+03,2142,5.151613e+01,2.090484e+03,2.880342e+01,7.544517e-01,1.025849e+01,1.848700e+03,1708
2560,2119,2.634143e+01,2.092659e+03,9.764325e+00,7.869277e-01,1.091734e+01,1.853400e+03,1858
2.564200e+03,2081,-1.384344e+01,2.094843e+03,1.427890e+01,4.002457e-02,1.164204e+01,1.858200e+03,1956
2.568400e+03,2149,5.196154e+01,2.097038e+03,2.678326e+01,-1.882876e-01,1.244162e+01,1.862900e+03,1866
2.572600e+03,2087,-1.224362e+01,2.099244e+03,2.885622e+01,-9.349712e-01,1.332666e+01,1.867600e+03,1752
2.576900e+03,2189,8.748823e+01,2.101512e+03,2.591902e+01,-4.491910e-02,1.433441e+01,1.872300e+03,1927
2.581100e+03,2100,-3.737419e+00,2.103737e+03,3.697166e+01,-1.130168e+00,1.543318e+01,1877,1958
2.585300e+03,2172,6.602683e+01,2.105973e+03,2.258559e+01,-1.232174e+00,1.666307e+01,1.881800e+03,1868
2.589500e+03,2114,5.780991e+00,2.108219e+03,1.690369e+01,-6.076441e-01,1.804557e+01,1.886500e+03,1859
2.593700e+03,2174,6.352507e+01,2.110475e+03,3.050493e+01,-8.810783e-01,1.960671e+01,1.891200e+03,1942
2.597900e+03,2064,-4.874092e+01,2.112741e+03,2.996107e+01,-9.263884e-01,2.137825e+01,1.895900e+03,1836
2.602100e+03,2063,-5.201697e+01,2.115017e+03,1.826434e+01,4.462603e-02,2.339925e+01,1.900600e+03,1893
2.606300e+03,2300,1.826969e+02,2.117303e+03,1.812902e+01,6.077075e-01,2.571813e+01,1.905300e+03,1849
2.610400e+03,2112,-7.544412e+00,2.119544e+03,4.555125e+00,1.215458e+00,2.832697e+01,1910,1776
2.614600e+03,2106,-1.585033e+01,2.121850e+03,-4.314470e+00,3.133860e+00,3.142777e+01,1.914700e+03,1850
2.618800e+03,2129,4.833750e+00,2.124166e+03,-1.186046e+00,3.435926e+00,3.505838e+01,1.919300e+03,1807
2623,2095,-3.149217e+01,2.126492e+03,-1.092470e+01,4.134146e+00,3.934380e+01,1924,1865
2.627200e+03,2018,-1.108281e+02,2.128828e+03,-1.025252e+01,4.603787e+00,4.444716e+01,1.928700e+03,1866
2.631300e+03,2101,-3.011800e+01,2.131118e+03,-1.259029e+01,4.665504e+00,5.042378e+01,1.933400e+03,1881
2.635500e+03,2248,1.145264e+02,2.133474e+03,1.249872e+01,4.093871e+00,5.784694e+01,1.938100e+03,1795
2.639700e+03,2133,-2.839185e+00,2.135839e+03,2.900641e+01,5.122933e+00,6.697291e+01,1.942700e+03,1761
2.643900e+03,2106,-3.221469e+01,2.138215e+03,6.394099e+01,5.343371e+00,7.833700e+01,1.947400e+03,1796
2648,2321,1.804568e+02,2.140543e+03,7.885775e+01,6.396467e+00,9.230293e+01,1952,1918
2.652200e+03,2227,8.406166e+01,2.142938e+03,1.029158e+02,5.424605e+00,1.105833e+02,1.956700e+03,1927
2.656300e+03,2279,1.337140e+02,2.145286e+03,1.452497e+02,4.616715e+00,1.337258e+02,1.961400e+03,1773
2.660500e+03,2222,7.429933e+01,2.147701e+03,1.751536e+02,4.163212e+00,1.649409e+02,1966,2013
2.664600e+03,2433,2.829326e+02,2.150067e+03,2.240397e+02,1.175718e+00,2.055574e+02,1.970700e+03,1796
2.668800e+03,2446,2.934984e+02,2.152502e+03,2.883529e+02,-4.693869e+00,2.613840e+02,1.975300e+03,1826
2.672900e+03,2332,1.771126e+02,2.154887e+03,3.647995e+02,-8.804044e+00,3.338639e+02,1980,1849
2.677100e+03,2680,5.226590e+02,2.157341e+03,4.582363e+02,-1.352646e+01,4.286868e+02,1.984600e+03,2052
2.681200e+03,2694,5.342542e+02,2.159746e+03,4.805209e+02,-1.635452e+01,5.348154e+02,1.989200e+03,1881
2.685300e+03,2831,6.688401e+02,2.162160e+03,5.183757e+02,-1.807309e+01,6.294955e+02,1.993900e+03,2047
2.689500e+03,2893,7.283574e+02,2.164643e+03,5.802125e+02,-1.855012e+01,6.716472e+02,1.998500e+03,1891
2.693600e+03,2606,4.389244e+02,2.167076e+03,5.660483e+02,-1.535801e+01,6.347317e+02,2.003100e+03,1803
2.697700e+03,2728,5.584820e+02,2.169518e+03,5.034460e+02,-8.921239e+00,5.423715e+02,2.007700e+03,1830
2.701900e+03,2782,6.099704e+02,2.172030e+03,4.342630e+02,-5.206920e+00,4.334705e+02,2.012300e+03,2137
2706,2598,4.235092e+02,2.174491e+03,3.579362e+02,-1.905646e-01,3.397889e+02,2017,1948
2.710100e+03,2273,9.603872e+01,2.176961e+03,3.131715e+02,4.588567e+00,2.659112e+02,2.021600e+03,1910
2.714200e+03,2364,1.845589e+02,2.179441e+03,2.278261e+02,7.857731e+00,2.100901e+02,2.026200e+03,1962
2.718300e+03,2376,1.940698e+02,2.181930e+03,1.460513e+02,8.118487e+00,1.683341e+02,2.030800e+03,1929
2.722400e+03,2310,1.255715e+02,2.184428e+03,9.798157e+01,7.318016e+00,1.369357e+02,2.035400e+03,1982
2.726500e+03,2148,-3.893608e+01,2.186936e+03,9.090258e+01,5.848657e+00,1.130432e+02,2040,1925
2.730600e+03,2227,3.754709e+01,2.189453e+03,8.467148e+01,5.648685e+00,9.459918e+01,2.044600e+03,2016
2.734700e+03,2279,8.702102e+01,2.191979e+03,6.071686e+01,3.660958e+00,8.014867e+01,2.049200e+03,1785
2.738800e+03,2241,4.648573e+01,2.194514e+03,3.961017e+01,2.334700e+00,6.866356e+01,2.053800e+03,1897
2.742900e+03,2338,1.409412e+02,2.197059e+03,3.477998e+01,1.767890e+00,5.941185e+01,2.058300e+03,1936
2747,2226,2.638754e+01,2.199612e+03,1.765488e+01,2.882455e+00,5.186622e+01,2.062900e+03,1872
2.751100e+03,2180,-2.217534e+01,2.202175e+03,4.520592e+00,3.017429e+00,4.564173e+01,2.067500e+03,1902
2.755200e+03,2132,-7.274740e+01,2.204747e+03,-1.613801e+00,2.907253e+00,4.045351e+01,2.072100e+03,1982
2.759300e+03,2125,-8.232863e+01,2.207329e+03,8.814099e+00,1.135852e+00,3.608792e+01,2.076700e+03,2075
2.763400e+03,2205,-4.919008e+00,2.209919e+03,-4.195696e+00,6.705787e-01,3.238265e+01,2.081200e+03,1797
2.767400e+03,2216,3.544978e+00,2.212455e+03,-7.071747e+00,-3.538787e-01,2.928463e+01,2.085800e+03,1828
2.771500e+03,2429,2.139365e+02,2.215063e+03,3.195157e+00,-1.243899e+00,2.654358e+01,2.090300e+03,1814
2.775600e+03,2153,-6.468102e+01,2.217681e+03,2.602443e+01,-2.896932e+00,2.416628e+01,2.094900e+03,1882
2.779700e+03,2178,-4.230769e+01,2.220308e+03,3.427323e+01,-2.170103e+00,2.209180e+01,2.099500e+03,1895
2.783700e+03,2222,-8.790726e-01,2.222879e+03,3.522749e+01,-2.288438e+00,2.031302e+01,2104,1943
2.787800e+03,2303,7.747628e+01,2.225524e+03,1.887011e+00,-4.884061e-01,1.870225e+01,2.108600e+03,2022
2.791900e+03,2281,5.282256e+01,2.228177e+03,-1.231027e+01,4.463153e-01,1.727457e+01,2.113100e+03,1890
2.795900e+03,2241,1.022482e+01,2.230775e+03,-1.108795e+01,1.862944e+00,1.603277e+01,2.117700e+03,1836
2800,2214,-1.944680e+01,2.233447e+03,-1.058867e+01,2.266782e+00,1.489325e+01,2.122200e+03,1944
2804,2072,-1.640620e+02,2.236062e+03,-3.852691e+01,3.168855e+00,1.389421e+01,2.126700e+03,2000
2.808100e+03,2205,-3.375148e+01,2.238751e+03,-4.860747e+01,1.707397e+00,1.297066e+01,2.131300e+03,1999
2.812100e+03,2244,2.615924e+00,2.241384e+03,-5.298242e+01,7.033428e-01,1.215533e+01,2.135800e+03,1834
2.816200e+03,2126,-1.180914e+02,2.244091e+03,-1.922341e+01,-4.149930e-01,1.139670e+01,2.140300e+03,1855
2.820200e+03,2229,-1.774135e+01,2.246741e+03,-1.047306e+01,-5.958415e-02,1.072286e+01,2.144800e+03,1800
2.824200e+03,2229,-2.039987e+01,2.249400e+03,-1.043626e+01,-1.035612e+00,1.010698e+01,2.149400e+03,1870
2.828300e+03,2469,2.168663e+02,2.252134e+03,-1.413199e+01,-2.247560e+00,9.529115e+00,2.153900e+03,1851
2.832300e+03,2152,-1.028095e+02,2.254810e+03,-1.582691e+01,-1.753656e+00,9.011787e+00,2.158400e+03,1969
2.836300e+03,2224,-3.349390e+01,2.257494e+03,-9.958986e+00,-1.423295e+00,8.535459e+00,2.162900e+03,2085
2.840400e+03,2237,-2.325420e+01,2.260254e+03,-2.652821e+01,-1.092936e+00,8.085377e+00,2.167400e+03,2035
2.844400e+03,2133,-1.299558e+02,2.262956e+03,-3.309647e+01,-7.255663e-01,7.679742e+00,2.171900e+03,1860
2.848400e+03,2289,2.333411e+01,2.265666e+03,-1.610183e+01,-6.485433e-01,7.303910e+00,2.176400e+03,2076
2.852400e+03,2132,-1.363845e+02,2.268384e+03,-2.398267e+01,-5.336700e-01,6.955039e+00,2.180900e+03,1935
2.856400e+03,2442,1.708885e+02,2.271112e+03,-5.414813e+01,1.903379e+00,6.630617e+00,2.185400e+03,1970
2.860400e+03,2290,1.615294e+01,2.273847e+03,-5.075065e+01,1.907775e+00,6.328418e+00,2.189900e+03,1914
2.864500e+03,2188,-8.865975e+01,2.276660e+03,-7.364738e+01,2.700200e+00,6.039657e+00,2.194400e+03,1812
2.868500e+03,2045,-2.344124e+02,2.279412e+03,-7.040974e+01,3.419158e+00,5.776620e+00,2.198800e+03,1907
2.872500e+03,2176,-1.061735e+02,2.282173e+03,-7.203770e+01,2.178376e+00,5.530447e+00,2.203300e+03,1994
2.876500e+03,2148,-1.369430e+02,2.284943e+03,-7.881698e+01,7.297069e-01,5.299729e+00,2.207800e+03,1962
2.880500e+03,2174,-1.137209e+02,2.287721e+03,-7.758486e+01,-1.565496e-01,5.083202e+00,2.212300e+03,2000
2.884500e+03,2450,1.594927e+02,2.290507e+03,-5.121827e+01,-1.508114e+00,4.879726e+00,2.216800e+03,1905
2.888500e+03,2262,-3.130201e+01,2.293302e+03,-2.786004e+01,-2.920611e+00,4.688275e+00,2.221200e+03,1970
2.892400e+03,2216,-8.003495e+01,2.296035e+03,-1.808160e+01,-1.415031e+00,4.512301e+00,2.225700e+03,1923
2.896400e+03,2249,-4.984624e+01,2.298846e+03,-1.345437e+01,-1.733648e+00,4.341956e+00,2.230100e+03,2001
2.900400e+03,2359,5.733410e+01,2.301666e+03,-4.939672e+01,-2.601568e-01,4.181124e+00,2.234600e+03,1862
2.904400e+03,2236,-6.849392e+01,2.304494e+03,-5.034738e+01,4.868038e-01,4.029109e+00,2.239100e+03,1895
2.908400e+03,2226,-8.133028e+01,2.307330e+03,-6.017349e+01,2.927933e+00,3.885279e+00,2.243500e+03,1869
2.912300e+03,2218,-9.210377e+01,2.310104e+03,-4.843648e+01,1.528246e+00,3.752374e+00,2248,1931
2.916300e+03,2275,-3.795659e+01,2.312957e+03,-7.312604e+01,2.919813e+00,3.623063e+00,2.252400e+03,1944
2.920300e+03,2167,-1.488177e+02,2.315818e+03,-4.496673e+01,-2.651473e-02,3.500361e+00,2.256800e+03,1951
2.924300e+03,2351,3.231283e+01,2.318687e+03,-4.566245e+01,7.146604e-02,3.383828e+00,2.261300e+03,2066
2.928200e+03,2206,-1.154929e+02,2.321493e+03,-4.109084e+01,-7.489122e-01,3.275757e+00,2.265700e+03,1978
2.932200e+03,2453,1.286213e+02,2.324379e+03,-3.052745e+01,-1.014188e+00,3.170242e+00,2.270100e+03,2024
2.936100e+03,2241,-8.620033e+01,2.327200e+03,-2.961852e+00,-3.826408e+00,3.072232e+00,2.274600e+03,1891
2.940100e+03,2270,-6.010249e+01,2.330102e+03,-2.183300e+01,-1.630460e+00,2.976388e+00,2279,1784
2.944100e+03,2369,3.598709e+01,2.333013e+03,-3.140681e+00,-2.915553e+00,2.884994e+00,2.283400e+03,1881
2948,2380,4.414150e+01,2.335859e+03,-3.758886e+01,-2.356941e+00,2.799908e+00,2.287800e+03,1982
2952,2239,-9.978520e+01,2.338785e+03,-2.334121e+01,-2.087523e+00,2.716522e+00,2.292300e+03,1935
2.955900e+03,2357,1.535335e+01,2.341647e+03,-1.009113e+01,-1.283416e+00,2.638785e+00,2.296700e+03,1942
2.959800e+03,2232,-1.125159e+02,2.344516e+03,-3.942057e+01,-4.711421e-01,2.564365e+00,2.301100e+03,1954
2.963800e+03,2361,1.353316e+01,2.347467e+03,-6.690076e+01,1.688071e+00,2.491287e+00,2.305500e+03,1919
2.967700e+03,2383,3.264811e+01,2.350352e+03,-7.152121e+01,1.280239e+00,2.423028e+00,2.309900e+03,1813
2.971700e+03,2184,-1.693190e+02,2.353319e+03,-8.286379e+01,2.365683e+00,2.355918e+00,2.314300e+03,2032
2.975600e+03,2208,-1.482198e+02,2.356220e+03,-8.908207e+01,3.598974e+00,2.293159e+00,2.318700e+03,2020
2.979500e+03,2227,-1.321284e+02,2.359128e+03,-1.052976e+02,4.137779e+00,2.232898e+00,2.323100e+03,2076
2.983400e+03,2298,-6.404471e+01,2.362045e+03,-1.189496e+02,3.072502e+00,2.175003e+00,2.327500e+03,2020
2.987400e+03,2209,-1.560439e+02,2.365044e+03,-1.055988e+02,1.558241e+00,2.117955e+00,2.331900e+03,2043
2.991300e+03,2268,-9.997587e+01,2.367976e+03,-8.754138e+01,1.052143e+00,2.064487e+00,2.336200e+03,1910
2.995200e+03,2308,-6.291560e+01,2.370916e+03,-7.820605e+01,1.198494e+00,2.013039e+00,2.340600e+03,2035
2.999100e+03,2298,-7.586305e+01,2.373863e+03,-8.202132e+01,-8.342668e-02,1.963510e+00,2345,2037
3003,2355,-2.181821e+01,2.376818e+03,-7.197646e+01,-2.105527e-01,1.915806e+00,2.349400e+03,1957
3.006900e+03,2313,-6.678106e+01,2.379781e+03,-2.665358e+01,-9.332955e-01,1.869837e+00,2.353800e+03,2074
3.010800e+03,2292,-9.075161e+01,2.382752e+03,-3.205268e+01,-1.907329e-01,1.825521e+00,2.358100e+03,1997
3.014700e+03,2300,-8.572983e+01,2.385730e+03,-5.774517e+01,1.160312e+00,1.782779e+00,2.362500e+03,2007
3.018600e+03,2606,2.172843e+02,2.388716e+03,-4.987390e+01,4.297244e-01,1.741537e+00,2.366900e+03,2112
3.022500e+03,2291,-1.007093e+02,2.391709e+03,-1.915315e+01,-5.250466e-01,1.701726e+00,2.371200e+03,2182
3.026400e+03,2139,-2.557105e+02,2.394710e+03,-6.297191e+00,1.181730e+00,1.663280e+00,2.375600e+03,2085
3.030300e+03,2431,3.328067e+01,2.397719e+03,7.551124e+00,5.660594e-01,1.626138e+00,2.379900e+03,2098
3.034200e+03,2549,1.482642e+02,2.400736e+03,-1.146534e+01,-1.094828e+00,1.590241e+00,2.384300e+03,1925
3.038100e+03,2403,-7.599056e-01,2.403760e+03,-1.060847e+00,-7.880425e-01,1.555533e+00,2.388600e+03,2173
3042,2418,1.120838e+01,2.406792e+03,4.191866e+01,-1.065569e+00,1.521963e+00,2393,2045
3.045900e+03,2494,8.416906e+01,2.409831e+03,4.089059e+01,-9.308471e-01,1.489481e+00,2.397300e+03,2163
3.049800e+03,2385,-2.787785e+01,2.412878e+03,4.199781e+01,-1.098166e+00,1.458042e+00,2.401600e+03,1916
3.053600e+03,2461,4.514606e+01,2.415854e+03,5.025161e+01,-2.155598e+00,1.428368e+00,2406,2129
3.057500e+03,2445,2.608418e+01,2.418916e+03,5.835503e+01,-2.250090e+00,1.398857e+00,2.410300e+03,1895
3.061400e+03,2578,1.560147e+02,2.421985e+03,4.987952e+01,-8.089197e-01,1.370263e+00,2.414600e+03,1965
3.065200e+03,2482,5.701671e+01,2.424983e+03,6.212215e+01,-1.070766e+00,1.343249e+00,2419,2070
3.069100e+03,2496,6.793235e+01,2.428068e+03,6.577469e+01,-9.401256e-01,1.316357e+00,2.423300e+03,2121
3073,2456,2.484045e+01,2.431160e+03,6.485974e+01,-6.696405e-02,1.290275e+00,2.427600e+03,2159
3.076800e+03,2492,5.782059e+01,2.434179e+03,5.436591e+01,1.061083e-02,1.265610e+00,2.431900e+03,2027
3.080700e+03,2508,7.071383e+01,2.437286e+03,3.615055e+01,1.210305e+00,1.241035e+00,2.436200e+03,2254
3.084500e+03,2460,1.967951e+01,2.440320e+03,4.278490e+01,8.354721e-01,1.217781e+00,2.440500e+03,2161
3.088400e+03,2526,8.255793e+01,2.443442e+03,4.542336e+01,7.858613e-01,1.194598e+00,2.444800e+03,1874
3.092200e+03,2376,-7.049082e+01,2.446491e+03,4.861451e+01,7.334802e-01,1.172650e+00,2.449200e+03,2045
3.096100e+03,2564,1.143728e+02,2.449627e+03,4.523840e+01,8.600345e-01,1.150755e+00,2.453500e+03,2095
3.099900e+03,2496,4.330969e+01,2.452690e+03,4.841494e+01,-3.596867e-01,1.130015e+00,2.457800e+03,1960
3.103800e+03,2536,8.015858e+01,2.455841e+03,3.916716e+01,8.726559e-01,1.109316e+00,2462,2058
3.107600e+03,2506,4.708109e+01,2.458919e+03,7.405508e+01,7.627993e-01,1.089697e+00,2.466300e+03,2066
3.111500e+03,2504,4.191527e+01,2.462085e+03,5.851878e+01,1.300934e+00,1.070106e+00,2.470600e+03,2058
3.115300e+03,2483,1.782347e+01,2.465177e+03,5.239222e+01,2.256389e+00,1.051529e+00,2.474900e+03,2001
3.119100e+03,2642,1.737246e+02,2.468275e+03,5.784151e+01,2.623096e+00,1.033439e+00,2.479200e+03,2024
3.122900e+03,2477,5.618722e+00,2.471381e+03,6.014085e+01,2.423119e+00,1.015819e+00,2.483500e+03,1950
3.126800e+03,2475,4.237778e-01,2.474576e+03,7.373043e+01,3.304443e+00,9.982069e-01,2.487700e+03,2083
3.130600e+03,2596,1.183036e+02,2.477696e+03,8.544399e+01,3.231669e+00,9.814899e-01,2492,2087
3.134400e+03,2544,6.317648e+01,2.480824e+03,1.077219e+02,1.607206e+00,9.651959e-01,2.496300e+03,2030
3.138200e+03,2621,1.370423e+02,2.483958e+03,1.132785e+02,2.321849e+00,9.493107e-01,2.500600e+03,1994
3.142100e+03,2587,9.981839e+01,2.487182e+03,1.462683e+02,1.260648e+00,9.334182e-01,2.504800e+03,2150
3.145900e+03,2820,3.296700e+02,2.490330e+03,1.749654e+02,3.021648e-01,9.183201e-01,2.509100e+03,2059
3.149700e+03,2538,4.451472e+01,2.493485e+03,1.912269e+02,4.096698e-02,9.035912e-01,2.513300e+03,2007
3.153500e+03,2728,2.313524e+02,2.496648e+03,2.230528e+02,-3.345166e-01,8.892196e-01,2.517600e+03,2032
3.157300e+03,2819,3.191832e+02,2.499817e+03,2.533121e+02,-2.449113e+00,8.751937e-01,2.521800e+03,1980
3.161100e+03,2680,1.770069e+02,2.502993e+03,2.578502e+02,-1.424601e+00,8.615025e-01,2.526100e+03,2359
3.164900e+03,2866,3.598238e+02,2.506176e+03,3.116670e+02,-2.310289e+00,8.481354e-01,2.530300e+03,2089
3.168700e+03,2821,3.116337e+02,2.509366e+03,3.214770e+02,-1.084627e-01,8.350822e-01,2.534600e+03,2075
3.172500e+03,2874,3.614366e+02,2.512563e+03,3.348635e+02,9.206434e-01,8.223330e-01,2.538800e+03,2036
3.176300e+03,2937,4.212327e+02,2.515767e+03,3.605288e+02,2.340621e+00,8.098785e-01,2.543100e+03,2205
3.180100e+03,2819,3.000218e+02,2.518978e+03,3.614730e+02,5.226126e+00,7.977096e-01,2.547300e+03,2142
3.183800e+03,2935,4.128888e+02,2.522111e+03,3.659817e+02,1.019209e+01,7.861271e-01,2.551500e+03,1997
3.187600e+03,2882,3.566643e+02,2.525336e+03,3.831978e+02,1.397267e+01,7.744966e-01,2.555800e+03,2142
3.191400e+03,2895,3.664330e+02,2.528567e+03,3.907051e+02,1.775981e+01,7.631268e-01,2560,2119
3.195200e+03,2875,3.431947e+02,2.531805e+03,4.869827e+02,1.897226e+01,7.520099e-01,2.564200e+03,2081
3199,3017,4.819496e+02,2.535050e+03,5.055062e+02,0,7.411383e-01,2.568400e+03,2149
3.202700e+03,3012,4.737833e+02,2.538217e+03,5.551202e+02,0,7.307818e-01,2.572600e+03,2087
 , , , , , , ,2.576900e+03,2189
 , , , , , , ,2.581100e+03,2100
 , , , , , , ,2.585300e+03,2172
 , , , , , , ,2.589500e+03,2114
 , , , , , , ,2.593700e+03,2174
 , , , , , , ,2.597900e+03,2064
 , , , , , , ,2.602100e+03,2063
 , , , , , , ,2.606300e+03,2300
 , , , , , , ,2.610400e+03,2112
 , , , , , , ,2.614600e+03,2106
 , , , , , , ,2.618800e+03,2129
 , , , , , , ,2623,2095
 , , , , , , ,2.627200e+03,2018
 , , , , , , ,2.631300e+03,2101
 , , , , , , ,2.635500e+03,2248
 , , , , , , ,2.639700e+03,2133
 , , , , , , ,2.643900e+03,2106
 , , , , , , ,2648,2321
 , , , , , , ,2.652200e+03,2227
 , , , , , , ,2.656300e+03,2279
 , , , , , , ,2.660500e+03,2222
 , , , , , , ,2.664600e+03,2433
 , , , , , , ,2.668800e+03,2446
 , , , , , , ,2.672900e+03,2332
 , , , , , , ,2.677100e+03,2680
 , , , , , , ,2.681200e+03,2694
 , , , , , , ,2.685300e+03,2831
 , , , , , , ,2.689500e+03,2893
 , , , , , , ,2.693600e+03,2606
 , , , , , , ,2.697700e+03,2728
 , , , , , , ,2.701900e+03,2782
 , , , , , , ,2706,2598
 , , , , , , ,2.710100e+03,2273
 , , , , , , ,2.714200e+03,2364
 , , , , , , ,2.718300e+03,2376
 , , , , , , ,2.722400e+03,2310
 , , , , , , ,2.726500e+03,2148
 , , , , , , ,2.730600e+03,2227
 , , , , , , ,2.734700e+03,2279
 , , , , , , ,2.738800e+03,2241
 , , , , , , ,2.742900e+03,2338
 , , , , , , ,2747,2226
 , , , , , , ,2.751100e+03,2180
 , , , , , , ,2.755200e+03,2132
 , , , , , , ,2.759300e+03,2125
 , , , , , , ,2.763400e+03,2205
 , , , , , , ,2.767400e+03,2216
 , , , , , , ,2.771500e+03,2429
 , , , , , , ,2.775600e+03,2153
 , , , , , , ,2.779700e+03,2178
 , , , , , , ,2.783700e+03,2222
 , , , , , , ,2.787800e+03,2303
 , , , , , , ,2.791900e+03,2281
 , , , , , , ,2.795900e+03,2241
 , , , , , , ,2800,2214
 , , , , , , ,2804,2072
 , , , , , , ,2.808100e+03,2205
 , , , , , , ,2.812100e+03,2244
 , , , , , , ,2.816200e+03,2126
 , , , , , , ,2.820200e+03,2229
 , , , , , , ,2.824200e+03,2229
 , , , , , , ,2.828300e+03,2469
 , , , , , , ,2.832300e+03,2152
 , , , , , , ,2.836300e+03,2224
 , , , , , , ,2.840400e+03,2237
 , , , , , , ,2.844400e+03,2133
 , , , , , , ,2.848400e+03,2289
 , , , , , , ,2.852400e+03,2132
 , , , , , , ,2.856400e+03,2442
 , , , , , , ,2.860400e+03,2290
 , , , , , , ,2.864500e+03,2188
 , , , , , , ,2.868500e+03,2045
 , , , , , , ,2.872500e+03,2176
 , , , , , , ,2.876500e+03,2148
 , , , , , , ,2.880500e+03,2174
 , , , , , , ,2.884500e+03,2450
 , , , , , , ,2.888500e+03,2262
 , , , , , , ,2.892400e+03,2216
 , , , , , , ,2.896400e+03,2249
 , , , , , , ,2.900400e+03,2359
 , , , , , , ,2.904400e+03,2236
 , , , , , , ,2.908400e+03,2226
 , , , , , , ,2.912300e+03,2218
 , , , , , , ,2.916300e+03,2275
 , , , , , , ,2.920300e+03,2167
 , , , , , , ,2.924300e+03,2351
 , , , , , , ,2.928200e+03,2206
 , , , , , , ,2.932200e+03,2453
 , , , , , , ,2.936100e+03,2241
 , , , , , , ,2.940100e+03,2270
 , , , , , , ,2.944100e+03,2369
 , , , , , , ,2948,2380
 , , , , , , ,2952,2239
 , , , , , , ,2.955900e+03,2357
 , , , , , , ,2.959800e+03,2232
 , , , , , , ,2.963800e+03,2361
 , , , , , , ,2.967700e+03,2383
 , , , , , , ,2.971700e+03,2184
 , , , , , , ,2.975600e+03,2208
 , , , , , , ,2.979500e+03,2227
 , , , , , , ,2.983400e+03,2298
 , , , , , , ,2.987400e+03,2209
 , , , , , , ,2.991300e+03,2268
 , , , , , , ,2.995200e+03,2308
 , , , , , , ,2.999100e+03,2298
 , , , , , , ,3003,2355
 , , , , , , ,3.006900e+03,2313
 , , , , , , ,3.010800e+03,2292
 , , , , , , ,3.014700e+03,2300
 , , , , , , ,3.018600e+03,2606
 , , , , , , ,3.022500e+03,2291
 , , , , , , ,3.026400e+03,2139
 , , , , , , ,3.030300e+03,2431
 , , , , , , ,3.034200e+03,2549
 , , , , , , ,3.038100e+03,2403
 , , , , , , ,3042,2418
 , , , , , , ,3.045900e+03,2494
 , , , , , , ,3.049800e+03,2385
 , , , , , , ,3.053600e+03,2461
 , , , , , , ,3.057500e+03,2445
 , , , , , , ,3.061400e+03,2578
 , , , , , , ,3.065200e+03,2482
 , , , , , , ,3.069100e+03,2496
 , , , , , , ,3073,2456
 , , , , , , ,3.076800e+03,2492
 , , , , , , ,3.080700e+03,2508
 , , , , , , ,3.084500e+03,2460
 , , , , , , ,3.088400e+03,2526
 , , , , , , ,3.092200e+03,2376
 , , , , , , ,3.096100e+03,2564
 , , , , , , ,3.099900e+03,2496
 , , , , , , ,3.103800e+03,2536
 , , , , , , ,3.107600e+03,2506
 , , , , , , ,3.111500e+03,2504
 , , , , , , ,3.115300e+03,2483
 , , , , , , ,3.119100e+03,2642
 , , , , , , ,3.122900e+03,2477
 , , , , , , ,3.126800e+03,2475
 , , , , , , ,3.130600e+03,2596
 , , , , , , ,3.134400e+03,2544
 , , , , , , ,3.138200e+03,2621
 , , , , , , ,3.142100e+03,2587
 , , , , , , ,3.145900e+03,2820
 , , , , , , ,3.149700e+03,2538
 , , , , , , ,3.153500e+03,2728
 , , , , , , ,3.157300e+03,2819
 , , , , , , ,3.161100e+03,2680
 , , , , , , ,3.164900e+03,2866
 , , , , , , ,3.168700e+03,2821
 , , , , , , ,3.172500e+03,2874
 , , , , , , ,3.176300e+03,2937
 , , , , , , ,3.180100e+03,2819
 , , , , , , ,3.183800e+03,2935
 , , , , , , ,3.187600e+03,2882
 , , , , , , ,3.191400e+03,2895
 , , , , , , ,3.195200e+03,2875
 , , , , , , ,3199,3017
 , , , , , , ,3.202700e+03,3012
 , , , , , , ,3.206500e+03,3030
 , , , , , , ,3.210300e+03,2966
 , , , , , , ,3214,3105
 , , , , , , ,3.217800e+03,2941
 , , , , , , ,3.221600e+03,3078
 , , , , , , ,3.225300e+03,3181
 , , , , , , ,3.229100e+03,3040
 , , , , , , ,3.232800e+03,3192
 , , , , , , ,3.236600e+03,3154
 , , , , , , ,3.240300e+03,3304
 , , , , , , ,3.244100e+03,3281
 , , , , , , ,3.247800e+03,2966
 , , , , , , ,3.251500e+03,3011
 , , , , , , ,3.255300e+03,3251
 , , , , , , ,3259,3183
 , , , , , , ,3.262700e+03,3156
 , , , , , , ,3.266500e+03,3255
 , , , , , , ,3.270200e+03,3094
 , , , , , , ,3.273900e+03,3384
 , , , , , , ,3.277600e+03,3200
 , , , , , , ,3.281300e+03,3181
 , , , , , , ,3.285100e+03,3266
 , , , , , , ,3.288800e+03,3265
 , , , , , , ,3.292500e+03,3112
 , , , , , , ,3.296200e+03,3251
 , , , , , , ,3.299900e+03,3348
 , , , , , , ,3.303600e+03,3156
 , , , , , , ,3.307300e+03,3498
 , , , , , , ,3311,3344
 , , , , , , ,3.314700e+03,3167
 , , , , , , ,3.318400e+03,3316
 , , , , , , ,3.322100e+03,3312
 , , , , , , ,3.325800e+03,3314
 , , , , , , ,3.329400e+03,3335
 , , , , , , ,3.333100e+03,3323
 , , , , , , ,3.336800e+03,3266
 , , , , , , ,3.340500e+03,3354
 , , , , , , ,3.344200e+03,3403
 , , , , , , ,3.347800e+03,3300
 , , , , , , ,3.351500e+03,3424
 , , , , , , ,3.355200e+03,3548
 , , , , , , ,3.358800e+03,3413
 , , , , , , ,3.362500e+03,3373
 , , , , , , ,3.366100e+03,3571
 , , , , , , ,3.369800e+03,3597
 , , , , , , ,3.373500e+03,3538
 , , , , , , ,3.377100e+03,3634
 , , , , , , ,3.380800e+03,3527
 , , , , , , ,3.384400e+03,3571
 , , , , , , ,3388,3552
 , , , , , , ,3.391700e+03,3672
 , , , , , , ,3.395300e+03,3692
 , , , , , , ,3399,3744
 , , , , , , ,3.402600e+03,3586
 , , , , , , ,3.406200e+03,3609
 , , , , , , ,3.409900e+03,3512
 , , , , , , ,3.413500e+03,3459
 , , , , , , ,3.417100e+03,3584
 , , , , , , ,3.420700e+03,3717
 , , , , , , ,3.424300e+03,3721
 , , , , , , ,3428,3510
 , , , , , , ,3.431600e+03,3546
 , , , , , , ,3.435200e+03,3782
 , , , , , , ,3.438800e+03,3491
 , , , , , , ,3.442400e+03,3833
 , , , , , , ,3446,3464
 , , , , , , ,3.449600e+03,3597
 , , , , , , ,3.453200e+03,3615
 , , , , , , ,3.456800e+03,3651
 , , , , , , ,3.460400e+03,3616
 , , , , , , ,3464,3738
 , , , , , , ,3.467600e+03,3613
 , , , , , , ,3.471200e+03,3575
 , , , , , , ,3.474700e+03,3620
 , , , , , , ,3.478300e+03,3648
 , , , , , , ,3.481900e+03,3727
 , , , , , , ,3.485500e+03,3582
 , , , , , , ,3.489100e+03,3538
 , , , , , , ,3.492600e+03,3487
 , , , , , , ,3.496200e+03,3541
 , , , , , , ,3.499800e+03,3553
 , , , , , , ,3.503300e+03,3346
 , , , , , , ,3.506900e+03,3342
 , , , , , , ,3.510500e+03,3248
 , , , , , , ,3514,3274
 , , , , , , ,3.517600e+03,3274
 , , , , , , ,3.521100e+03,3365
 , , , , , , ,3.524700e+03,3119
 , , , , , , ,3.528200e+03,3259
 , , , , , , ,3.531800e+03,3228
 , , , , , , ,3.535300e+03,3200
 , , , , , , ,3.538800e+03,3180
 , , , , , , ,3.542400e+03,2945
 , , , , , , ,3.545900e+03,3116
 , , , , , , ,3.549400e+03,3261
 , , , , , , ,3553,3192
 , , , , , , ,3.556500e+03,2855
 , , , , , , ,3560,2916
 , , , , , , ,3.563500e+03,2899
 , , , , , , ,3.567100e+03,2941
 , , , , , , ,3.570600e+03,2845
 , , , , , , ,3.574100e+03,2957
 , , , , , , ,3.577600e+03,2836
 , , , , , , ,3.581100e+03,2855
 , , , , , , ,3.584600e+03,2844
 , , , , , , ,3.588100e+03,2888
 , , , , , , ,3.591600e+03,3177
 , , , , , , ,3.595100e+03,2985
 , , , , , , ,3.598600e+03,2846
 , , , , , , ,3.602100e+03,2664
 , , , , , , ,3.605600e+03,2695
 , , , , , , ,3.609100e+03,2915
 , , , , , , ,3.612600e+03,2770
 , , , , , , ,3.616100e+03,2688
 , , , , , , ,3.619600e+03,2981
 , , , , , , ,3.623100e+03,2804
 , , , , , , ,3.626500e+03,2709
 , , , , , , ,3630,2503
 , , , , , , ,3.633500e+03,2656
 , , , , , , ,3637,2562
 , , , , , , ,3.640400e+03,2518
 , , , , , , ,3.643900e+03,2513
 , , , , , , ,3.647400e+03,2557
 , , , , , , ,3.650800e+03,2582
 , , , , , , ,3.654300e+03,2540
 , , , , , , ,3.657700e+03,2488
 , , , , , , ,3.661200e+03,2780
 , , , , , , ,3.664700e+03,2399
 , , , , , , ,3.668100e+03,2414
 , , , , , , ,3.671500e+03,2404
 , , , , , , ,3675,2390
 , , , , , , ,3.678400e+03,2237
 , , , , , , ,3.681900e+03,2385
 , , , , , , ,3.685300e+03,2416
 , , , , , , ,3.688800e+03,2424
 , , , , , , ,3.692200e+03,2366
 , , , , , , ,3.695600e+03,2378
 , , , , , , ,3699,2600
 , , , , , , ,3.702500e+03,2250
 , , , , , , ,3.705900e+03,2277
 , , , , , , ,3.709300e+03,2355
 , , , , , , ,3.712700e+03,2334
 , , , , , , ,3.716200e+03,2332
 , , , , , , ,3.719600e+03,2268
 , , , , , , ,3723,2371
 , , , , , , ,3.726400e+03,2233
 , , , , , , ,3.729800e+03,2456
 , , , , , , ,3.733200e+03,2245
 , , , , , , ,3.736600e+03,2456
 , , , , , , ,3740,2355
 , , , , , , ,3.743400e+03,2437
 , , , , , , ,3.746800e+03,2456
 , , , , , , ,3.750200e+03,2296
 , , , , , , ,3.753600e+03,2403
 , , , , , , ,3757,2196
 , , , , , , ,3.760400e+03,2515
 , , , , , , ,3.763800e+03,2247
 , , , , , , ,3.767100e+03,2172
 , , , , , , ,3.770500e+03,2387
 , , , , , , ,3.773900e+03,2365
 , , , , , , ,3.777300e+03,2524
 , , , , , , ,3.780600e+03,2372
 , , , , , , ,3784,2302
 , , , , , , ,3.787400e+03,2292
 , , , , , , ,3.790800e+03,2184
 , , , , , , ,3.794100e+03,2142
 , , , , , , ,3.797500e+03,2056
 , , , , , , ,3.800800e+03,2197
 , , , , , , ,3.804200e+03,2403
 , , , , , , ,3.807600e+03,2226
 , , , , , , ,3.810900e+03,2184
 , , , , , , ,3.814300e+03,2319
 , , , , , , ,3.817600e+03,2225
 , , , , , , ,3.820900e+03,2359
 , , , , , , ,3.824300e+03,2404
 , , , , , , ,3.827600e+03,2212
 , , , , , , ,3831,2343
 , , , , , , ,3.834300e+03,2325
 , , , , , , ,3.837600e+03,2266
 , , , , , , ,3841,2274
 , , , , , , ,3.844300e+03,2306
 , , , , , , ,3.847600e+03,2407
 , , , , , , ,3851,2300
 , , , , , , ,3.854300e+03,2201
 , , , , , , ,3.857600e+03,2174
 , , , , , , ,3.860900e+03,2218
 , , , , , , ,3.864200e+03,2205
 , , , , , , ,3.867500e+03,2359
 , , , , , , ,3.870900e+03,2245
 , , , , , , ,3.874200e+03,2254
 , , , , , , ,3.877500e+03,2216
 , , , , , , ,3.880800e+03,2272
 , , , , , , ,3.884100e+03,2296
 , , , , , , ,3.887400e+03,2127
 , , , , , , ,3.890700e+03,2336
 , , , , , , ,3894,2309
 , , , , , , ,3.897300e+03,2240
 , , , , , , ,3.900600e+03,2194
 , , , , , , ,3.903800e+03,2104
 , , , , , , ,3.907100e+03,2247
 , , , , , , ,3.910400e+03,2226
 , , , , , , ,3.913700e+03,2245
 , , , , , , ,3917,2121
 , , , , , , ,3.920300e+03,2296
 , , , , , , ,3.923500e+03,2260
 , , , , , , ,3.926800e+03,2317
 , , , , , , ,3.930100e+03,2290
 , , , , , , ,3.933300e+03,2231
 , , , , , , ,3.936600e+03,2531
 , , , , , , ,3.939900e+03,2296
 , , , , , , ,3.943100e+03,2448
 , , , , , , ,3.946400e+03,2290
 , , , , , , ,3.949700e+03,2373
 , , , , , , ,3.952900e+03,2439
 , , , , , , ,3.956200e+03,2325
 , , , , , , ,3.959400e+03,2319
 , , , , , , ,3.962700e+03,2334
 , , , , , , ,3.965900e+03,2379
 , , , , , , ,3.969200e+03,2462
 , , , , , , ,3.972400e+03,2385
 , , , , , , ,3.975600e+03,2282
 , , , , , , ,3.978900e+03,2288
 , , , , , , ,3.982100e+03,2424
 , , , , , , ,3.985300e+03,2296
 , , , , , , ,3.988600e+03,2439
 , , , , , , ,3.991800e+03,2421
 , , , , , , ,3995,2245
 , , , , , , ,3.998300e+03,2330
 , , , , , , ,4.001500e+03,2322
 , , , , , , ,4.004700e+03,2239
 , , , , , , ,4.007900e+03,2366
 , , , , , , ,4.011100e+03,2244
 , , , , , , ,4.014300e+03,2412
 , , , , , , ,4.017600e+03,2371
 , , , , , , ,4.020800e+03,2381
 , , , , , , ,4024,2366
 , , , , , , ,4.027200e+03,2290
 , , , , , , ,4.030400e+03,2578
 , , , , , , ,4.033600e+03,2243
 , , , , , , ,4.036800e+03,2342
 , , , , , , ,4040,2264
 , , , , , , ,4.043200e+03,2302
 , , , , , , ,4.046400e+03,2252
 , , , , , , ,4.049500e+03,2359
 , , , , , , ,4.052700e+03,2283
 , , , , , , ,4.055900e+03,2267
 , , , , , , ,4.059100e+03,2229
 , , , , , , ,4.062300e+03,2407
 , , , , , , ,4.065500e+03,2235
 , , , , , , ,4.068600e+03,2275
 , , , , , , ,4.071800e+03,2306
 , , , , , , ,4075,2382
 , , , , , , ,4.078200e+03,2473
 , , , , , , ,4.081300e+03,2350
 , , , , , , ,4.084500e+03,2397
 , , , , , , ,4.087600e+03,2303
 , , , , , , ,4.090800e+03,2313
 , , , , , , ,4094,2220
 , , , , , , ,4.097100e+03,2228
 , , , , , , ,4.100300e+03,2359
 , , , , , , ,4.103400e+03,2239
 , , , , , , ,4.106600e+03,2369
 , , , , , , ,4.109700e+03,2235
 , , , , , , ,4.112900e+03,2286
 , , , , , , ,4116,2296
 , , , , , , ,4.119200e+03,2243
 , , , , , , ,4.122300e+03,2357
 , , , , , , ,4.125400e+03,2323
 , , , , , , ,4.128600e+03,2446
 , , , , , , ,4.131700e+03,2334
 , , , , , , ,4.134800e+03,2279
 , , , , , , ,4138,2205
 , , , , , , ,4.141100e+03,2323
 , , , , , , ,4.144200e+03,2253
 , , , , , , ,4.147300e+03,2393
 , , , , , , ,4.150500e+03,2536
 , , , , , , ,4.153600e+03,2323
 , , , , , , ,4.156700e+03,2300
 , , , , , , ,4.159800e+03,2359
 , , , , , , ,4.162900e+03,2430
 , , , , , , ,4166,2227
 , , , , , , ,4.169100e+03,2345
 , , , , , , ,4.172300e+03,2263
 , , , , , , ,4.175400e+03,2433
 , , , , , , ,4.178500e+03,2242
 , , , , , , ,4.181600e+03,2306
 , , , , , , ,4.184700e+03,2389
 , , , , , , ,4.187700e+03,2279
 , , , , , , ,4.190800e+03,2253
 , , , , , , ,4.193900e+03,2446
 , , , , , , ,4197,2286
 , , , , , , ,4.200100e+03,2346
 , , , , , , ,4.203200e+03,2378
 , , , , , , ,4.206300e+03,2334
 , , , , , , ,4.209400e+03,2392
 , , , , , , ,4.212400e+03,2297
 , , , , , , ,4.215500e+03,2216
 , , , , , , ,4.218600e+03,2326
 , , , , , , ,4.221700e+03,2585
 , , , , , , ,4.224700e+03,2416
 , , , , , , ,4.227800e+03,2367
 , , , , , , ,4.230900e+03,2448
 , , , , , , ,4.233900e+03,2503
 , , , , , , ,4237,2494
 , , , , , , ,4240,2308
 , , , , , , ,4.243100e+03,2511
 , , , , , , ,4.246200e+03,2253
 , , , , , , ,4.249200e+03,2467
 , , , , , , ,4.252300e+03,2336
 , , , , , , ,4.255300e+03,2305
 , , , , , , ,4.258400e+03,2560
 , , , , , , ,4.261400e+03,2342
 , , , , , , ,4.264400e+03,2353
 , , , , , , ,4.267500e+03,2296
 , , , , , , ,4.270500e+03,2211
 , , , , , , ,4.273600e+03,2442
 , , , , , , ,4.276600e+03,2359
 , , , , , , ,4.279600e+03,2456
 , , , , , , ,4.282700e+03,2409
 , , , , , , ,4.285700e+03,2422
 , , , , , , ,4.288700e+03,2465
 , , , , , , ,4.291700e+03,2188
 , , , , , , ,4.294800e+03,2422
 , , , , , , ,4.297800e+03,2420
 , , , , , , ,4.300800e+03,2359
 , , , , , , ,4.303800e+03,2418
 , , , , , , ,4.306800e+03,2350
 , , , , , , ,4.309800e+03,2333
 , , , , , , ,4.312900e+03,2363
 , , , , , , ,4.315900e+03,2631
 , , , , , , ,4.318900e+03,2285
 , , , , , , ,4.321900e+03,2391
 , , , , , , ,4.324900e+03,2399
 , , , , , , ,4.327900e+03,2353
 , , , , , , ,4.330900e+03,2336
 , , , , , , ,4.333900e+03,2582
 , , , , , , ,4.336900e+03,2357
 , , , , , , ,4.339900e+03,2286
 , , , , , , ,4.342800e+03,2393
 , , , , , , ,4.345800e+03,2336
 , , , , , , ,4.348800e+03,2418
 , , , , , , ,4.351800e+03,2270
 , , , , , , ,4.354800e+03,2298
 , , , , , , ,4.357800e+03,2275
 , , , , , , ,4.360700e+03,2604
 , , , , , , ,4.363700e+03,2296
 , , , , , , ,4.366700e+03,2418
 , , , , , , ,4.369700e+03,2505
 , , , , , , ,4.372600e+03,2323
 , , , , , , ,4.375600e+03,2478
 , , , , , , ,4.378600e+03,2439
 , , , , , , ,4.381500e+03,2302
 , , , , , , ,4.384500e+03,2250
 , , , , , , ,4.387400e+03,2576
 , , , , , , ,4.390400e+03,2171
 , , , , , , ,4.393400e+03,2349
 , , , , , , ,4.396300e+03,2443
 , , , , , , ,4.399300e+03,2566
 , , , , , , ,4.402200e+03,2405
 , , , , , , ,4.405200e+03,2275
 , , , , , , ,4.408100e+03,2305
 , , , , , , ,4.411100e+03,2260
 , , , , , , ,4414,2367
 , , , , , , ,4.416900e+03,2433
 , , , , , , ,4.419900e+03,2384
 , , , , , , ,4.422800e+03,2294
 , , , , , , ,4.425700e+03,2241
 , , , , , , ,4.428700e+03,2355
 , , , , , , ,4.431600e+03,2292
 , , , , , , ,4.434500e+03,2127
 , , , , , , ,4.437500e+03,2363
 , , , , , , ,4.440400e+03,2448
 , , , , , , ,4.443300e+03,2458
 , , , , , , ,4.446200e+03,2149
 , , , , , , ,4.449100e+03,2195
 , , , , , , ,4452,2279
